#PicoHarp 300  Histogram Data			04/04/2023 01:37:53 PM
#channels per curve
65536
#display curve no.
0	1	2	
#memory block no.
0	1	2	
#ns/channel
0.1280	0.1280	0.1280	
#counts
1851	1753	1804	
1891	1736	1934	
1866	1782	1894	
1926	1843	1999	
1929	1763	1947	
1902	1802	1933	
1986	1822	1945	
1945	1868	1838	
1946	1745	1908	
1903	1733	1950	
1880	1738	1970	
1898	1777	1867	
1966	1841	1960	
1896	1769	1828	
1928	1740	1886	
1881	1900	1955	
1956	1782	1886	
1828	1773	1828	
1910	1773	1827	
1834	1807	1874	
2000	1862	1907	
1990	1719	1918	
1937	1786	1916	
1982	1805	1860	
1849	1764	1880	
1934	1719	1918	
1927	1778	1877	
1910	1810	1807	
1890	1784	1893	
1922	1832	1833	
1922	1830	1940	
1891	1789	1862	
1918	1760	1933	
1940	1885	1861	
1878	1827	1912	
1876	1816	1901	
1959	1750	2000	
1832	1783	1939	
1910	1761	1857	
1918	1765	1925	
1874	1779	1838	
1840	1929	1936	
1949	1828	1853	
1833	1763	1868	
1917	1757	1873	
1900	1753	1815	
1872	1798	1824	
1870	1845	1879	
1817	1802	1866	
1918	1896	1937	
1951	1839	1873	
1779	1773	1817	
1900	1855	1877	
1874	1869	1824	
1831	1796	1889	
1841	1766	1919	
1796	1831	1887	
1822	1792	1902	
1796	1805	1901	
1898	1886	1839	
1769	1809	1855	
1794	1805	1903	
1738	1883	1810	
1802	1818	1855	
1856	1756	1908	
1778	1893	1832	
1812	1884	1835	
1808	1874	1897	
1870	1869	1855	
1807	1934	1797	
1713	1856	1880	
1830	1883	1804	
1746	1915	1957	
1753	1904	1851	
1797	1877	1793	
1766	1927	1859	
1809	1910	1813	
1780	1880	1872	
1753	1879	1837	
1768	1902	1821	
1824	1848	1880	
1763	1972	1870	
1674	1950	1853	
1685	1866	1853	
1730	1855	1774	
1667	1913	1806	
1762	1920	1785	
1624	1838	1889	
1790	1851	1695	
1766	1886	1822	
1675	1916	1796	
1695	1945	1841	
1730	1958	1812	
1733	1875	1843	
1802	1972	1837	
1740	1908	1881	
1759	1922	1853	
1767	1950	1751	
1719	1887	1884	
1798	2000	1842	
1642	1991	1793	
1704	1900	1830	
1711	1895	1838	
1646	1992	1815	
1733	1934	1887	
1682	1881	1774	
1724	1948	1813	
1706	1937	1799	
1655	1852	1839	
1808	1938	1846	
1667	1860	1803	
1708	1893	1814	
1724	1936	1824	
1761	1950	1857	
1711	1960	1786	
1764	1901	1814	
1724	1964	1850	
1600	1912	1833	
1742	1932	1848	
1729	1883	1864	
1652	1972	1810	
1751	1935	1829	
1702	1995	1803	
1734	1878	1855	
1724	1911	1922	
1747	1943	1800	
1752	1875	1836	
1690	1857	1866	
1788	1845	1785	
1736	1929	1864	
1753	1879	1823	
1707	1942	1867	
1672	1874	1829	
1731	1907	1817	
1734	1818	1868	
1786	1877	1849	
1774	1845	1811	
1797	1805	1847	
1724	1840	1833	
1728	1803	1908	
1770	1901	1841	
1786	1830	1826	
1825	1819	1863	
1810	1754	1768	
1835	1783	1900	
1777	1853	1831	
1801	1784	1852	
1841	1838	1841	
1767	1842	1860	
1786	1867	1878	
1766	1767	1879	
1765	1866	1813	
1757	1801	1755	
1816	1832	1817	
1797	1770	1861	
1798	1717	1868	
1827	1756	1833	
1843	1844	1829	
1786	1826	1815	
1823	1792	1876	
1883	1739	1762	
1843	1816	1871	
1735	1818	1835	
1811	1787	1853	
1772	1703	1801	
1854	1726	1810	
1807	1801	1828	
1843	1779	1785	
1813	1781	1889	
1897	1779	1925	
1877	1760	1828	
1773	1838	1778	
1923	1719	1868	
1893	1788	1850	
1864	1803	1801	
1859	1724	1760	
1775	1838	1850	
1876	1806	1820	
1813	1797	1745	
1843	1729	1791	
1803	1705	1876	
1937	1704	1786	
1881	1745	1843	
1890	1681	1788	
1794	1655	1826	
1811	1736	1806	
1871	1681	1758	
1872	1706	1840	
1891	1767	1797	
1804	1709	1852	
1852	1744	1801	
1832	1789	1801	
1873	1765	1720	
1909	1740	1820	
1838	1682	1834	
1916	1680	1835	
1867	1751	1832	
1925	1772	1737	
1780	1697	1788	
1797	1649	1764	
1787	1701	1809	
1834	1772	1804	
1749	1825	1868	
1890	1669	1768	
1908	1681	1747	
1840	1763	1814	
1826	1768	1835	
1832	1750	1801	
1837	1790	1822	
1763	1746	1801	
1766	1698	1834	
1766	1721	1725	
1712	1767	1836	
1777	1803	1726	
1779	1805	1795	
1732	1736	1762	
1839	1688	1817	
1847	1743	1812	
1823	1829	1800	
1754	1740	1836	
1803	1753	1820	
1824	1834	1762	
1825	1821	1845	
1801	1778	1685	
1767	1775	1763	
1770	1784	1730	
1720	1808	1775	
1713	1813	1776	
1735	1812	1791	
1778	1667	1733	
1739	1757	1863	
1749	1727	1843	
1757	1876	1839	
1743	1787	1819	
1775	1824	1784	
1762	1770	1771	
1631	1852	1759	
1733	1776	1732	
1708	1755	1788	
1662	1885	1801	
1731	1761	1741	
1756	1891	1763	
1606	1868	1704	
1665	1757	1738	
1699	1867	1727	
1658	1792	1790	
1649	1817	1748	
1707	1862	1790	
1678	1867	1737	
1671	1732	1735	
1697	1848	1791	
1678	1851	1743	
1697	1889	1801	
1745	1777	1749	
1666	1750	1843	
1639	1812	1837	
1636	1815	1783	
1645	1898	1751	
1640	1884	1747	
1637	1885	1738	
1626	1840	1720	
1621	1853	1811	
1659	1855	1804	
1698	1921	1752	
1647	1910	1748	
1683	1876	1770	
1653	1841	1744	
1668	1881	1736	
1579	1913	1747	
1660	1902	1812	
1715	1847	1792	
1644	1883	1767	
1607	1828	1781	
1711	1923	1896	
1672	1835	1775	
1670	1952	1785	
1682	1938	1730	
1659	1881	1787	
1607	1829	1768	
1626	1877	1820	
1634	1930	1696	
1631	1859	1832	
1568	1842	1723	
1631	1794	1807	
1613	1800	1725	
1631	1847	1757	
1647	1804	1744	
1650	1865	1785	
1617	1847	1706	
1627	1865	1805	
1692	1818	1711	
1550	1902	1766	
1624	1895	1821	
1601	1820	1727	
1628	1893	1734	
1679	1786	1741	
1677	1841	1779	
1750	1823	1714	
1713	1780	1718	
1713	1788	1756	
1748	1761	1806	
1738	1841	1766	
1746	1786	1722	
1682	1762	1726	
1688	1817	1734	
1709	1799	1703	
1756	1851	1749	
1662	1778	1783	
1594	1661	1814	
1745	1804	1790	
1653	1785	1742	
1753	1774	1762	
1689	1691	1745	
1677	1735	1694	
1678	1682	1767	
1716	1713	1779	
1681	1756	1793	
1747	1809	1689	
1775	1693	1718	
1735	1742	1676	
1660	1717	1730	
1715	1692	1796	
1685	1701	1728	
1693	1700	1763	
1708	1721	1711	
1737	1724	1745	
1683	1786	1720	
1710	1708	1714	
1829	1802	1747	
1796	1700	1732	
1742	1661	1745	
1752	1665	1726	
1733	1696	1736	
1762	1646	1816	
1764	1701	1830	
1778	1680	1721	
1757	1745	1720	
1716	1646	1790	
1813	1660	1704	
1738	1687	1741	
1796	1735	1767	
1770	1641	1798	
1820	1709	1746	
1784	1707	1818	
1879	1711	1702	
1777	1602	1693	
1711	1621	1713	
1833	1673	1760	
1855	1565	1732	
1804	1601	1708	
1757	1623	1742	
1751	1680	1798	
1748	1619	1801	
1729	1677	1773	
1831	1720	1693	
1825	1631	1725	
1720	1658	1707	
1685	1629	1777	
1799	1579	1748	
1751	1655	1801	
1812	1665	1739	
1751	1641	1767	
1840	1611	1716	
1742	1608	1725	
1797	1612	1675	
1729	1615	1714	
1786	1640	1760	
1790	1605	1669	
1670	1694	1702	
1715	1701	1730	
1743	1513	1692	
1808	1707	1709	
1808	1681	1645	
1732	1665	1715	
1761	1666	1618	
1752	1639	1686	
1723	1656	1732	
1722	1655	1745	
1624	1634	1753	
1731	1640	1655	
1710	1666	1781	
1691	1647	1680	
1753	1638	1757	
1810	1674	1631	
1758	1549	1711	
1738	1677	1755	
1675	1675	1711	
1722	1587	1699	
1651	1669	1683	
1638	1692	1674	
1667	1671	1727	
1697	1662	1721	
1620	1692	1609	
1712	1628	1659	
1612	1753	1722	
1643	1788	1720	
1669	1768	1708	
1582	1690	1722	
1710	1627	1695	
1680	1707	1746	
1695	1741	1762	
1640	1774	1768	
1613	1668	1626	
1609	1780	1666	
1582	1763	1710	
1680	1684	1702	
1620	1719	1653	
1674	1703	1657	
1556	1781	1688	
1652	1786	1753	
1635	1742	1663	
1600	1785	1708	
1628	1725	1698	
1547	1721	1735	
1614	1724	1716	
1613	1795	1640	
1566	1798	1654	
1651	1764	1578	
1560	1727	1640	
1564	1764	1714	
1589	1828	1681	
1546	1698	1688	
1634	1703	1720	
1607	1735	1616	
1565	1753	1661	
1605	1817	1698	
1627	1724	1624	
1596	1763	1696	
1562	1781	1611	
1629	1784	1669	
1562	1783	1617	
1593	1731	1661	
1615	1724	1668	
1575	1744	1639	
1613	1775	1685	
1623	1725	1741	
1517	1894	1679	
1576	1752	1708	
1514	1803	1681	
1610	1808	1673	
1581	1760	1626	
1530	1777	1603	
1513	1818	1636	
1657	1777	1690	
1603	1765	1621	
1584	1822	1598	
1486	1819	1646	
1594	1866	1689	
1532	1735	1595	
1531	1756	1674	
1548	1812	1628	
1587	1857	1660	
1534	1778	1596	
1594	1827	1639	
1583	1762	1620	
1546	1787	1660	
1497	1688	1574	
1559	1738	1654	
1613	1728	1612	
1563	1806	1642	
1582	1736	1629	
1559	1715	1595	
1574	1810	1618	
1557	1751	1573	
1559	1754	1625	
1520	1644	1607	
1604	1693	1555	
1601	1708	1553	
1508	1736	1628	
1644	1660	1557	
1606	1715	1568	
1638	1632	1531	
1702	1728	1598	
1601	1695	1598	
1595	1580	1640	
1682	1656	1525	
1648	1703	1498	
1581	1725	1527	
1572	1726	1561	
1629	1687	1558	
1564	1690	1498	
1611	1685	1510	
1622	1709	1544	
1597	1676	1475	
1642	1625	1535	
1622	1635	1533	
1666	1595	1559	
1631	1671	1471	
1572	1633	1497	
1719	1642	1417	
1674	1617	1419	
1648	1661	1407	
1567	1648	1411	
1612	1591	1429	
1674	1613	1393	
1677	1619	1363	
1642	1578	1427	
1628	1578	1395	
1699	1490	1347	
1704	1646	1376	
1730	1601	1340	
1634	1577	1355	
1755	1628	1297	
1716	1649	1275	
1641	1559	1294	
1604	1581	1229	
1705	1572	1272	
1682	1508	1268	
1668	1593	1272	
1651	1584	1221	
1656	1522	1182	
1652	1587	1218	
1752	1530	1289	
1734	1524	1272	
1698	1570	1168	
1624	1511	1304	
1708	1538	1219	
1682	1606	1149	
1612	1553	1174	
1662	1570	1150	
1613	1544	1154	
1703	1533	1159	
1646	1509	1092	
1617	1528	1124	
1681	1577	1055	
1613	1569	1085	
1682	1543	1115	
1669	1542	1050	
1656	1610	1138	
1686	1514	1039	
1630	1518	1020	
1663	1485	1009	
1700	1552	1091	
1633	1524	1069	
1669	1468	995	
1677	1505	972	
1614	1577	1037	
1696	1559	1009	
1594	1564	1042	
1650	1575	1025	
1558	1508	983	
1583	1604	1010	
1668	1567	991	
1670	1519	955	
1627	1521	956	
1568	1528	922	
1624	1471	971	
1593	1588	977	
1511	1641	950	
1572	1529	899	
1546	1531	926	
1637	1615	931	
1568	1582	882	
1613	1550	825	
1509	1628	884	
1494	1570	920	
1482	1528	859	
1522	1557	895	
1566	1646	908	
1553	1541	893	
1545	1580	835	
1525	1484	907	
1499	1525	880	
1484	1593	860	
1455	1568	901	
1441	1583	869	
1499	1571	893	
1407	1590	878	
1503	1577	857	
1377	1666	809	
1445	1610	788	
1464	1626	785	
1347	1638	822	
1398	1525	823	
1343	1607	858	
1414	1555	793	
1390	1620	794	
1403	1637	807	
1335	1561	831	
1326	1546	810	
1293	1581	799	
1294	1616	812	
1360	1586	742	
1335	1598	779	
1243	1620	756	
1306	1611	750	
1270	1624	769	
1260	1571	751	
1253	1552	742	
1250	1605	761	
1196	1660	741	
1226	1535	728	
1177	1539	744	
1204	1609	715	
1150	1586	767	
1148	1582	750	
1172	1623	716	
1217	1578	736	
1154	1608	688	
1147	1538	714	
1129	1572	774	
1096	1549	717	
1179	1510	699	
1104	1562	712	
1149	1536	701	
1075	1536	679	
1021	1498	732	
1050	1508	731	
1061	1521	679	
1075	1492	690	
1069	1486	650	
1071	1555	688	
987	1501	633	
1001	1488	645	
1050	1449	641	
1027	1524	631	
949	1529	663	
969	1470	601	
983	1405	623	
944	1416	615	
903	1462	685	
927	1393	595	
935	1423	602	
867	1474	641	
867	1404	659	
924	1365	616	
899	1394	631	
862	1408	631	
829	1401	594	
848	1283	570	
889	1371	575	
805	1334	629	
794	1321	549	
860	1280	638	
841	1346	584	
844	1327	537	
810	1284	550	
832	1296	561	
813	1264	530	
827	1295	553	
815	1218	547	
741	1251	513	
794	1235	605	
755	1127	540	
798	1253	500	
766	1160	499	
786	1126	510	
747	1192	535	
783	1210	545	
673	1170	493	
736	1095	470	
707	1110	470	
709	1027	509	
696	1081	512	
744	994	475	
691	1059	466	
683	993	428	
632	1013	425	
642	1026	488	
683	962	445	
657	977	435	
611	931	446	
642	974	465	
678	910	441	
666	933	460	
648	889	479	
608	871	369	
617	899	418	
585	893	389	
567	895	405	
577	815	393	
534	880	385	
557	820	335	
582	799	407	
519	802	397	
525	781	388	
530	808	387	
518	798	351	
514	812	389	
549	753	327	
533	777	356	
481	778	351	
495	769	376	
501	747	375	
503	735	346	
459	700	326	
443	743	341	
444	673	353	
423	711	323	
481	624	309	
427	667	347	
432	647	339	
398	695	342	
430	689	278	
413	646	280	
384	668	323	
365	629	324	
422	591	284	
370	617	304	
381	600	270	
335	644	311	
364	599	273	
372	593	249	
359	588	261	
367	562	265	
363	590	279	
337	600	269	
346	556	294	
344	527	271	
330	558	257	
324	526	271	
313	508	267	
297	525	284	
316	508	272	
279	514	218	
338	504	250	
301	455	259	
291	470	234	
307	473	228	
307	473	240	
265	435	222	
268	432	234	
295	498	217	
306	411	269	
293	387	219	
276	403	240	
279	400	230	
288	408	233	
288	404	233	
251	445	215	
244	414	225	
262	411	237	
250	386	228	
302	407	225	
255	359	221	
245	348	225	
285	338	229	
249	353	221	
241	374	230	
236	384	238	
252	333	212	
250	356	232	
226	332	205	
229	352	203	
230	309	234	
264	319	236	
229	342	230	
251	340	212	
243	307	193	
209	309	225	
257	296	202	
250	308	202	
246	302	216	
221	309	214	
248	296	207	
206	307	190	
232	273	201	
214	300	192	
211	298	222	
226	309	189	
243	283	198	
229	280	203	
210	259	191	
221	260	207	
237	260	179	
220	278	175	
219	255	180	
211	299	182	
205	268	183	
211	245	199	
210	250	202	
211	277	184	
222	267	196	
185	268	180	
189	252	192	
218	272	172	
221	251	175	
194	240	209	
241	236	187	
222	231	180	
217	249	185	
198	240	178	
205	218	174	
223	238	199	
232	212	172	
217	233	193	
228	231	203	
201	241	187	
192	212	201	
192	229	184	
235	241	198	
190	256	181	
193	244	188	
214	205	199	
195	246	183	
183	206	177	
197	239	151	
206	239	176	
167	222	185	
193	240	178	
214	197	181	
198	225	173	
190	221	167	
214	193	197	
188	207	165	
209	216	187	
186	222	209	
185	201	167	
190	222	171	
193	223	189	
174	224	210	
212	205	180	
168	251	182	
193	198	176	
180	205	163	
216	186	161	
200	223	158	
165	238	194	
170	211	169	
197	213	154	
197	214	167	
218	200	186	
174	219	177	
180	214	166	
175	232	155	
188	200	176	
146	205	162	
191	209	190	
189	219	187	
172	222	172	
179	191	188	
203	208	166	
201	212	150	
184	221	191	
203	187	189	
204	195	177	
190	190	175	
186	210	163	
195	202	187	
184	239	168	
179	185	163	
192	206	158	
173	210	177	
200	198	173	
182	204	193	
192	203	160	
161	208	179	
157	171	188	
177	210	171	
186	192	168	
199	231	165	
204	194	169	
163	185	165	
170	191	171	
189	208	167	
210	209	169	
200	212	171	
191	190	170	
185	212	183	
188	198	160	
154	174	144	
195	194	160	
167	177	165	
193	176	163	
156	182	152	
177	178	159	
188	210	197	
165	183	189	
166	180	163	
193	204	150	
171	206	155	
163	188	168	
177	180	161	
194	203	167	
191	181	169	
190	169	183	
188	204	142	
191	206	160	
185	181	157	
190	205	169	
170	174	170	
177	197	178	
187	190	176	
181	177	160	
181	181	167	
164	198	148	
149	192	174	
196	182	165	
153	222	152	
166	188	159	
171	208	143	
175	192	160	
196	191	144	
191	197	152	
170	228	176	
200	204	173	
213	181	169	
185	190	160	
167	198	147	
180	170	176	
169	200	160	
169	199	162	
169	190	166	
170	185	168	
175	170	156	
178	186	145	
151	200	133	
188	198	175	
159	192	150	
151	185	158	
173	200	190	
191	169	167	
182	181	136	
174	184	141	
171	184	137	
187	186	146	
158	195	148	
175	180	155	
151	187	165	
158	187	161	
163	170	150	
171	158	151	
147	179	163	
172	200	153	
169	197	163	
164	185	135	
149	182	160	
143	174	173	
162	198	154	
199	219	155	
153	181	148	
173	182	157	
162	214	162	
161	175	155	
183	206	133	
160	175	150	
182	212	149	
165	182	142	
158	182	131	
161	191	161	
148	176	133	
169	185	148	
169	187	157	
166	183	142	
177	186	132	
148	174	161	
166	166	147	
178	193	152	
175	187	153	
165	186	137	
158	180	165	
180	176	161	
168	175	174	
176	163	138	
133	175	152	
168	186	165	
172	187	147	
160	174	145	
161	191	134	
164	192	129	
177	176	162	
170	180	140	
172	187	153	
160	174	138	
160	170	123	
173	177	161	
162	201	171	
171	171	145	
153	180	128	
164	181	146	
178	163	126	
169	210	144	
175	165	138	
178	170	160	
126	177	143	
175	179	146	
164	167	126	
154	156	171	
154	176	179	
147	173	132	
172	167	159	
174	185	164	
158	178	142	
163	163	132	
180	167	124	
184	180	133	
142	181	137	
182	157	142	
152	188	125	
140	180	156	
174	177	159	
161	190	142	
147	196	133	
160	172	125	
175	158	130	
183	180	128	
162	182	151	
167	170	138	
150	179	137	
159	163	156	
165	173	144	
162	184	155	
135	189	147	
180	178	131	
173	162	143	
137	200	124	
177	167	118	
158	163	124	
150	161	123	
153	172	130	
159	185	152	
155	183	133	
177	164	132	
150	177	125	
155	179	129	
161	149	122	
151	162	143	
143	150	126	
173	178	158	
142	175	131	
162	194	124	
162	176	138	
147	162	143	
150	184	139	
168	176	113	
163	183	121	
155	164	131	
164	150	141	
169	165	125	
159	176	126	
152	136	155	
119	152	136	
151	157	145	
155	173	115	
136	189	142	
153	156	142	
146	176	131	
141	188	114	
178	175	134	
167	139	102	
157	168	135	
152	184	156	
159	152	131	
158	171	135	
138	143	123	
139	172	140	
165	175	141	
167	183	143	
149	160	143	
140	177	136	
129	166	125	
137	161	149	
160	173	136	
172	152	122	
142	165	119	
148	178	138	
145	159	138	
144	142	149	
141	175	134	
169	172	139	
144	152	130	
156	165	145	
172	173	137	
149	189	137	
161	161	126	
146	165	125	
156	175	108	
158	150	117	
137	160	118	
131	164	134	
165	168	145	
155	159	130	
154	150	126	
138	161	117	
156	140	127	
130	163	120	
132	147	115	
153	156	143	
144	171	128	
145	174	126	
148	164	141	
144	171	122	
149	157	121	
150	165	131	
139	173	128	
153	163	117	
146	179	139	
172	143	110	
164	160	111	
143	177	113	
132	164	139	
151	152	110	
138	173	119	
152	154	136	
145	176	125	
151	154	131	
145	189	125	
159	173	131	
147	164	118	
149	155	127	
152	160	102	
139	142	132	
138	157	112	
153	144	130	
154	161	115	
151	166	132	
153	170	116	
159	142	113	
163	167	120	
133	155	124	
149	142	127	
149	159	132	
135	162	136	
130	166	122	
161	134	135	
137	160	128	
147	148	138	
141	150	115	
119	155	107	
127	164	138	
160	154	114	
166	157	105	
143	172	123	
138	139	128	
145	151	131	
143	175	117	
136	195	111	
146	141	143	
134	154	124	
152	164	120	
134	139	121	
157	137	130	
131	157	112	
140	180	123	
136	161	124	
143	140	128	
127	154	105	
130	149	114	
153	160	111	
151	117	115	
149	166	117	
149	165	132	
162	178	109	
120	154	111	
133	148	125	
142	143	118	
124	152	130	
135	130	106	
142	168	100	
145	157	125	
139	151	111	
136	156	110	
136	154	121	
152	148	116	
125	162	135	
139	142	108	
128	150	123	
149	138	119	
112	150	114	
141	146	119	
138	155	116	
113	140	104	
106	139	110	
135	142	112	
120	145	121	
127	151	121	
134	154	124	
128	135	112	
140	143	121	
141	140	115	
149	122	107	
107	143	126	
133	143	126	
156	172	121	
134	128	127	
130	148	119	
125	162	150	
145	142	119	
134	133	107	
142	131	128	
133	159	130	
146	139	115	
123	158	131	
126	135	126	
144	143	106	
136	159	100	
150	134	127	
141	170	99	
136	136	127	
122	141	117	
139	169	102	
135	143	108	
132	151	117	
118	156	100	
134	128	112	
138	141	128	
145	141	104	
122	139	114	
127	137	125	
143	132	109	
130	154	101	
160	124	114	
130	137	107	
155	159	136	
134	141	111	
126	146	123	
127	145	117	
126	151	109	
145	155	115	
126	135	113	
110	133	116	
137	134	92	
117	140	105	
118	143	118	
121	151	116	
131	150	95	
146	141	115	
133	142	106	
124	147	109	
134	157	110	
131	132	115	
116	138	110	
123	134	121	
118	131	108	
123	134	102	
121	155	108	
137	128	88	
122	174	120	
125	158	111	
148	142	111	
134	133	119	
124	127	109	
135	138	100	
121	148	95	
100	130	97	
131	135	105	
132	130	106	
114	147	103	
131	132	103	
99	148	140	
130	159	110	
115	143	108	
108	145	112	
110	159	88	
111	147	107	
130	149	84	
108	155	111	
130	133	89	
111	158	92	
138	166	97	
98	135	96	
120	146	129	
112	137	102	
124	143	106	
110	148	108	
121	141	112	
119	141	93	
126	138	110	
108	137	117	
102	125	97	
115	128	97	
120	134	107	
111	134	97	
125	146	106	
105	145	99	
123	131	95	
137	129	122	
114	151	96	
132	128	91	
115	142	102	
101	128	98	
123	151	120	
138	121	105	
118	146	116	
122	123	97	
122	129	109	
136	140	107	
120	136	94	
141	130	100	
127	148	79	
117	123	112	
115	134	95	
115	138	109	
122	126	108	
101	127	96	
102	129	110	
111	129	89	
116	146	103	
123	122	109	
130	149	103	
140	138	87	
120	135	88	
128	135	94	
129	125	111	
96	123	103	
140	154	105	
115	124	104	
108	112	97	
116	127	104	
105	147	102	
117	121	103	
109	115	109	
118	147	99	
123	147	108	
112	129	89	
120	131	96	
113	137	89	
118	133	108	
131	132	92	
110	123	95	
124	136	105	
118	122	103	
128	120	82	
118	124	96	
128	140	79	
138	138	97	
120	108	91	
134	155	102	
110	108	108	
117	155	99	
99	115	87	
99	130	96	
123	117	83	
111	116	79	
112	134	106	
128	130	94	
107	133	90	
122	130	96	
110	114	93	
90	118	94	
114	119	79	
101	142	78	
123	122	111	
86	154	89	
125	128	84	
120	133	106	
127	151	91	
110	142	117	
111	147	109	
139	119	71	
128	134	82	
124	136	101	
112	118	103	
123	136	89	
106	128	92	
99	114	93	
116	117	92	
116	127	101	
106	129	101	
96	152	64	
132	123	95	
125	152	100	
115	117	92	
116	130	77	
123	112	93	
109	112	88	
111	132	71	
100	125	88	
106	112	86	
86	124	72	
119	144	86	
96	121	72	
108	120	106	
125	131	83	
117	114	91	
99	120	85	
106	119	94	
104	126	84	
106	106	76	
100	125	88	
113	97	79	
116	93	85	
97	125	90	
106	124	80	
106	122	89	
106	127	79	
121	123	89	
101	111	83	
113	112	83	
119	141	94	
99	118	66	
111	106	95	
116	130	104	
107	121	86	
124	104	84	
95	130	78	
104	119	83	
82	143	85	
106	109	84	
105	103	88	
113	129	72	
115	128	93	
94	118	71	
120	135	95	
103	128	79	
101	120	92	
101	115	76	
108	121	72	
99	127	103	
101	122	85	
115	119	90	
119	130	74	
104	107	76	
104	120	87	
93	120	94	
115	131	89	
81	121	102	
106	101	90	
104	95	70	
114	133	86	
113	134	69	
80	114	94	
98	103	77	
108	101	83	
102	104	77	
91	109	90	
89	116	73	
98	104	86	
113	131	80	
116	126	79	
99	126	74	
101	118	80	
96	128	79	
104	108	81	
120	111	79	
104	114	79	
87	99	77	
95	121	99	
101	111	90	
102	117	86	
89	100	73	
99	128	79	
105	129	71	
93	91	82	
110	132	91	
103	102	82	
108	134	88	
103	113	85	
82	109	73	
108	96	76	
103	107	65	
123	101	102	
111	117	76	
105	111	75	
91	125	86	
112	135	81	
113	121	80	
86	106	65	
102	138	85	
111	130	65	
110	113	77	
84	103	79	
101	112	71	
95	118	84	
116	122	87	
111	112	87	
103	102	71	
104	108	66	
111	108	77	
87	120	87	
93	96	73	
84	106	77	
90	113	68	
107	110	73	
103	108	81	
110	126	68	
119	107	98	
87	111	77	
100	120	67	
106	93	82	
86	125	82	
100	127	64	
123	101	81	
102	122	65	
102	105	71	
91	104	77	
114	84	62	
91	115	67	
81	125	57	
102	111	64	
79	113	87	
88	114	73	
102	99	79	
100	116	79	
89	116	82	
81	104	54	
101	106	75	
101	117	70	
90	115	75	
117	105	68	
85	89	90	
94	110	84	
75	123	66	
95	133	87	
89	107	67	
91	118	76	
83	117	84	
86	108	72	
88	99	92	
81	94	69	
90	108	78	
90	104	84	
87	110	76	
97	110	84	
101	115	83	
98	105	71	
103	86	66	
88	114	63	
93	107	89	
86	108	72	
102	130	78	
91	114	69	
101	124	79	
98	95	74	
96	118	72	
92	109	61	
79	108	94	
101	105	67	
99	107	69	
97	101	71	
95	121	62	
89	91	83	
93	98	68	
94	102	78	
83	120	75	
89	96	79	
102	103	90	
104	98	74	
91	109	72	
90	101	81	
87	99	68	
105	109	77	
79	103	64	
92	97	63	
78	94	76	
73	104	91	
79	99	62	
97	106	65	
88	96	72	
97	88	66	
84	116	66	
69	143	63	
95	117	64	
94	102	84	
81	95	67	
85	87	60	
75	108	60	
86	100	59	
81	108	70	
78	98	53	
79	109	72	
99	97	75	
74	106	68	
92	103	75	
78	110	57	
91	105	61	
96	95	65	
88	117	64	
84	87	77	
89	95	74	
105	103	56	
90	115	74	
83	107	76	
88	104	59	
85	101	63	
87	94	82	
84	93	84	
87	93	65	
86	87	57	
80	85	76	
92	108	68	
85	105	56	
76	90	73	
94	100	67	
96	96	66	
98	80	56	
101	89	76	
78	100	72	
86	98	62	
91	100	61	
76	103	78	
88	109	74	
83	95	68	
74	94	59	
87	113	58	
75	106	67	
81	83	69	
80	84	50	
92	110	69	
63	98	49	
82	88	71	
78	95	78	
101	90	66	
105	94	63	
85	106	67	
86	100	72	
73	91	66	
91	113	64	
84	78	66	
77	78	81	
84	84	52	
86	91	73	
88	100	67	
65	100	65	
71	86	58	
68	85	51	
86	100	69	
79	96	62	
80	117	52	
79	100	55	
81	82	57	
68	107	67	
82	84	59	
85	101	69	
69	88	55	
89	91	69	
75	97	63	
89	85	54	
89	109	59	
88	108	60	
86	100	72	
76	78	69	
75	86	77	
83	108	49	
79	91	72	
69	89	64	
66	101	60	
86	83	49	
76	102	65	
86	79	56	
68	104	57	
78	68	68	
84	90	69	
80	83	57	
70	95	68	
79	103	49	
76	94	57	
80	108	46	
77	99	58	
79	99	68	
68	91	59	
75	91	66	
91	77	73	
74	95	74	
87	92	57	
74	110	56	
80	86	70	
76	93	58	
69	92	56	
83	87	63	
85	102	60	
88	81	47	
86	86	60	
83	100	61	
88	98	64	
76	94	64	
90	93	64	
68	85	58	
81	87	58	
69	60	60	
71	91	63	
76	89	47	
77	89	66	
72	91	47	
75	89	64	
72	89	61	
72	98	69	
78	95	64	
82	88	53	
61	81	60	
64	81	48	
71	95	73	
86	88	60	
88	88	57	
76	80	56	
82	87	51	
69	91	56	
69	81	64	
73	80	56	
66	78	56	
81	101	59	
72	92	62	
69	99	56	
69	88	70	
69	80	54	
65	88	60	
68	91	60	
79	65	62	
73	83	54	
74	76	51	
53	104	63	
94	83	62	
67	82	69	
78	86	54	
74	86	57	
72	70	53	
68	93	40	
70	83	60	
73	76	56	
77	80	49	
88	81	56	
64	73	57	
85	78	57	
89	75	60	
68	77	58	
64	89	53	
80	89	46	
69	92	67	
65	76	60	
72	90	63	
75	84	51	
79	93	48	
83	73	48	
65	101	58	
74	74	61	
86	69	57	
77	92	42	
92	81	67	
63	101	54	
74	82	62	
74	88	53	
60	84	56	
80	79	70	
57	93	68	
73	90	57	
71	95	51	
72	77	51	
62	95	43	
75	78	55	
71	83	48	
65	86	67	
67	87	56	
74	79	53	
77	82	52	
64	77	42	
76	85	46	
80	82	52	
66	79	64	
57	87	55	
66	78	38	
71	84	40	
68	79	58	
66	72	48	
63	81	48	
60	79	60	
63	86	60	
68	85	56	
74	65	57	
56	73	50	
75	70	48	
74	73	55	
73	61	58	
71	89	74	
57	79	62	
76	67	46	
52	80	52	
79	68	51	
72	83	48	
87	81	51	
71	82	54	
76	92	47	
58	87	51	
67	76	60	
71	83	49	
68	85	54	
67	91	67	
61	71	46	
65	76	50	
72	69	50	
69	96	43	
63	66	54	
57	74	57	
81	73	45	
70	72	47	
72	82	46	
64	84	53	
70	73	54	
68	87	49	
64	76	59	
83	64	53	
61	85	50	
75	74	40	
65	60	52	
67	91	44	
63	73	42	
48	52	40	
65	83	41	
47	72	55	
47	73	45	
50	74	53	
56	75	42	
60	77	51	
78	72	48	
64	70	52	
56	89	63	
69	84	37	
63	67	52	
75	81	54	
67	66	46	
72	72	51	
66	87	55	
62	97	42	
79	79	39	
70	76	56	
62	75	64	
66	71	52	
61	64	54	
65	76	42	
57	71	42	
52	65	50	
58	96	63	
48	72	47	
71	88	49	
67	70	48	
65	75	48	
57	70	45	
65	68	46	
54	75	32	
70	66	46	
62	87	48	
56	72	58	
73	66	49	
78	75	50	
73	80	47	
62	64	55	
59	73	61	
69	77	49	
61	62	52	
48	77	48	
74	66	54	
64	70	53	
67	67	52	
64	74	47	
68	67	41	
72	71	51	
70	81	49	
58	66	48	
60	66	53	
66	84	43	
55	80	45	
66	67	41	
77	79	44	
58	66	35	
67	59	44	
61	75	49	
59	76	40	
64	67	43	
62	81	51	
69	75	52	
62	76	49	
63	83	52	
54	86	42	
74	69	43	
58	68	48	
53	79	48	
48	80	45	
52	89	27	
71	75	44	
48	68	38	
50	72	41	
66	59	48	
46	73	41	
65	76	39	
56	81	40	
62	80	34	
48	76	53	
69	57	45	
53	67	49	
48	69	44	
61	77	53	
58	62	36	
54	78	52	
71	84	40	
47	70	61	
72	58	46	
56	66	41	
60	53	50	
50	70	41	
54	74	49	
60	53	42	
54	55	34	
70	71	49	
60	61	47	
64	77	39	
49	70	36	
54	74	37	
68	81	44	
66	78	52	
50	77	36	
51	76	45	
51	64	42	
48	81	48	
60	80	38	
55	68	41	
55	71	38	
55	65	45	
55	68	47	
49	47	54	
54	76	45	
55	70	57	
48	58	31	
47	75	44	
46	62	39	
65	71	40	
55	81	52	
56	71	42	
53	69	52	
47	60	36	
53	66	43	
65	44	50	
50	60	39	
54	83	40	
55	52	38	
61	71	36	
49	65	48	
55	72	40	
58	67	47	
47	66	39	
51	56	35	
61	62	40	
75	52	28	
53	71	36	
58	70	46	
44	49	41	
53	75	43	
43	65	30	
52	85	33	
46	61	46	
55	68	57	
55	65	29	
57	62	41	
64	67	40	
51	58	32	
60	70	29	
67	63	42	
61	52	37	
53	92	52	
54	80	40	
44	65	45	
45	82	43	
56	59	42	
45	57	36	
43	49	33	
65	75	43	
52	79	34	
52	75	43	
46	62	35	
62	64	52	
60	76	39	
63	76	40	
50	65	39	
64	51	29	
59	61	35	
71	71	35	
56	69	37	
63	69	38	
57	63	45	
46	65	35	
63	58	38	
43	52	49	
52	54	40	
45	68	42	
61	65	47	
70	61	38	
49	56	38	
61	73	36	
41	61	40	
60	66	36	
66	71	45	
52	47	45	
54	57	34	
42	73	30	
52	71	44	
54	56	36	
45	64	37	
57	67	41	
45	59	39	
47	67	41	
41	57	40	
54	56	37	
52	58	45	
51	60	39	
72	67	36	
60	64	44	
43	68	33	
45	68	40	
45	62	39	
54	60	52	
50	59	36	
60	71	29	
49	63	38	
46	60	29	
44	69	42	
56	53	33	
51	52	38	
37	52	28	
45	70	42	
52	66	45	
53	65	38	
56	66	37	
49	51	32	
69	68	29	
41	51	38	
55	63	34	
49	69	25	
54	59	43	
50	46	33	
52	72	44	
34	63	39	
37	74	49	
56	64	35	
56	53	36	
47	59	50	
36	69	44	
40	56	48	
42	63	34	
59	71	39	
49	55	36	
32	61	30	
46	64	32	
46	63	37	
54	47	44	
47	57	40	
46	46	39	
59	56	27	
46	50	34	
54	57	34	
43	60	34	
47	57	27	
34	68	40	
40	65	40	
41	61	39	
57	55	44	
43	51	33	
40	59	25	
48	47	38	
48	55	39	
55	66	26	
45	61	41	
58	55	23	
55	51	40	
49	64	43	
42	49	33	
37	40	34	
57	53	28	
46	50	40	
47	75	32	
52	59	36	
49	52	29	
49	59	31	
52	54	26	
38	60	50	
40	50	33	
47	64	19	
44	53	32	
41	51	29	
45	56	29	
53	56	35	
43	42	24	
50	51	32	
50	55	37	
41	63	44	
47	72	33	
43	52	31	
51	63	27	
47	57	38	
53	62	29	
40	56	37	
43	51	32	
38	61	39	
46	59	41	
39	52	36	
44	65	38	
54	56	30	
48	57	25	
43	62	31	
54	60	32	
40	58	32	
45	59	26	
49	54	43	
38	56	28	
43	50	32	
53	65	31	
42	54	25	
57	53	36	
51	53	45	
57	65	36	
41	62	22	
34	56	19	
52	61	28	
50	62	33	
38	49	35	
43	59	37	
34	40	38	
39	50	29	
41	46	32	
34	41	33	
36	45	33	
53	42	36	
38	59	36	
40	65	43	
40	51	39	
34	46	27	
46	52	33	
45	56	35	
42	49	23	
29	52	32	
51	52	42	
51	46	41	
30	50	30	
39	68	33	
41	37	36	
49	54	27	
44	45	36	
42	65	30	
47	64	29	
45	61	27	
35	55	28	
50	55	25	
43	58	41	
53	44	45	
34	48	30	
45	61	31	
42	43	31	
54	62	44	
34	49	27	
41	44	31	
37	68	34	
37	57	25	
47	58	29	
38	56	36	
49	56	37	
57	44	25	
54	48	21	
49	56	40	
42	52	31	
37	56	26	
44	55	37	
57	47	32	
56	60	29	
39	37	25	
44	45	32	
44	44	19	
39	55	24	
41	54	28	
43	39	31	
37	50	26	
36	48	29	
49	46	32	
34	48	30	
37	59	28	
42	44	40	
40	54	32	
