#PicoHarp 300  Histogram Data			04/04/2023 04:46:22 PM
#channels per curve
65536
#display curve no.
0	1	2	3	4	
#memory block no.
0	1	2	3	4	
#ns/channel
0.1280	0.1280	0.1280	0.1280	0.1280	
#counts
1755	1807	1723	1786	1889	
1895	1818	1710	1799	1890	
1796	1874	1737	1830	1977	
1988	1842	1845	1895	2000	
1862	1916	1831	1800	1880	
1888	1876	1782	2000	1930	
1866	1892	1777	1801	1911	
1839	1883	1794	1795	1935	
1922	1829	1749	1806	1915	
1798	1825	1750	1850	1898	
1887	1800	1661	1737	1893	
1841	1877	1740	1689	1833	
1870	1875	1770	1745	1911	
1919	1820	1693	1789	1870	
1899	1777	1665	1733	1894	
1801	1762	1729	1762	1903	
1860	1763	1755	1808	1896	
1815	1726	1709	1795	1867	
1956	1806	1756	1744	1828	
1796	1747	1617	1773	1902	
1876	1780	1662	1824	1824	
1901	1857	1696	1707	1911	
1893	1789	1755	1772	1951	
1841	1821	1759	1800	1888	
1892	1763	1707	1766	1978	
1921	1925	1742	1733	1900	
1818	1800	1741	1836	1928	
1829	1793	1694	1669	1862	
1796	1834	1648	1759	1884	
1797	1755	1672	1777	1875	
1851	1730	1657	1799	1835	
1893	1806	1774	1733	1893	
1884	1708	1732	1823	1829	
1879	1864	1780	1798	1885	
1820	1811	1739	1653	1916	
1915	1747	1672	1770	1883	
1811	1754	1843	1804	1871	
1907	1790	1713	1800	1919	
1912	1847	1722	1822	1945	
1930	1780	1775	1814	1923	
1903	1773	1766	1796	1864	
1936	1808	1704	1780	1918	
1845	1798	1679	1770	1850	
1822	1874	1708	1783	1828	
1875	1821	1757	1746	1778	
1844	1702	1709	1811	1901	
1852	1851	1798	1740	1883	
1825	1826	1737	1731	1880	
1814	1772	1723	1774	1863	
1835	1823	1778	1827	1838	
1842	1888	1749	1739	1852	
1846	1797	1752	1794	1824	
1849	1860	1879	1769	1833	
1873	1793	1872	1809	1926	
1865	1867	1714	1807	1814	
1849	1716	1747	1762	1811	
1783	1751	1760	1753	1890	
1841	1741	1846	1701	1847	
1914	1784	1765	1737	1886	
1832	1919	1736	1732	1829	
2000	1887	1805	1765	1860	
1907	1849	1804	1746	1845	
1831	1855	1816	1766	1786	
1840	1836	1825	1752	1944	
1866	1865	1721	1735	1802	
1905	1907	1830	1783	1877	
1861	1806	1873	1759	1857	
1897	1886	1947	1778	1822	
1908	1855	1839	1701	1912	
1913	1820	1785	1765	1845	
1894	1976	1800	1774	1779	
1943	1840	1846	1761	1838	
1801	1878	1828	1783	1788	
1890	1841	1816	1729	1820	
1903	1939	1852	1764	1763	
1840	1904	1835	1703	1783	
1958	1846	1830	1744	1812	
1942	1914	1888	1684	1875	
1937	1882	1892	1875	1784	
1896	1856	1832	1728	1825	
1886	1935	1820	1687	1846	
1944	1906	1849	1837	1800	
1904	1928	1949	1728	1789	
1884	1853	1836	1814	1805	
1878	1898	1875	1750	1825	
1903	1940	1853	1814	1770	
1910	1958	1961	1826	1826	
1809	1849	1853	1780	1864	
1937	1884	1913	1763	1758	
1872	1858	1902	1794	1756	
1813	1879	1924	1719	1837	
1840	1952	1973	1766	1772	
1837	1916	1920	1748	1705	
1905	1952	1842	1743	1796	
1921	1901	1875	1777	1834	
1870	1912	1888	1741	1872	
1920	1898	1849	1808	1835	
1840	1974	1916	1677	1804	
1901	1881	1800	1802	1706	
1859	1854	1871	1788	1870	
1882	1961	2000	1763	1837	
1919	1964	1959	1682	1796	
1846	1939	1924	1735	1866	
1843	1959	1964	1649	1818	
1960	1889	1852	1805	1832	
1957	1923	1973	1716	1789	
1882	1821	1988	1735	1777	
1831	1977	1944	1745	1785	
1907	1940	1931	1789	1815	
1884	1979	1915	1794	1820	
1985	1879	1849	1726	1771	
1907	1941	1875	1781	1764	
1873	1901	1826	1730	1804	
1933	1908	1945	1760	1833	
1974	1897	1867	1780	1726	
1959	1853	1924	1727	1838	
1883	1957	1852	1730	1801	
1942	1961	1837	1806	1840	
1848	1903	1807	1817	1767	
1903	1975	1872	1681	1731	
1920	1934	1901	1761	1852	
1894	1872	1893	1738	1810	
1888	1834	1909	1704	1770	
1850	1891	1892	1786	1831	
1904	1922	1931	1799	1797	
1920	1927	1845	1717	1753	
1896	1980	1827	1809	1837	
1793	1859	1942	1700	1770	
1876	1919	1827	1815	1855	
1879	1874	1892	1772	1775	
1955	1899	1857	1753	1895	
1796	1936	1747	1767	1798	
1843	1878	1749	1710	1840	
1845	1947	1863	1718	1792	
1934	1776	1783	1719	1820	
1910	1901	1833	1736	1773	
1905	1868	1834	1754	1783	
1864	1891	1855	1753	1810	
1986	1887	1833	1745	1752	
1945	1891	1837	1779	1781	
1827	1939	1888	1695	1772	
1895	1800	1812	1768	1882	
1898	1867	1847	1748	1853	
1889	1827	1735	1768	1857	
1815	1876	1783	1759	1807	
1897	1808	1846	1752	1800	
1892	1777	1725	1736	1847	
1892	1891	1768	1695	1862	
1843	1848	1801	1732	1891	
1891	1859	1763	1765	1779	
1832	1900	1853	1724	1784	
1854	1807	1770	1732	1751	
1827	1793	1743	1779	1816	
1859	1877	1741	1674	1809	
1844	1836	1638	1728	1863	
1880	1828	1725	1786	1885	
1875	1781	1715	1669	1742	
1883	1858	1761	1651	1768	
1820	1805	1847	1639	1826	
1862	1838	1749	1753	1811	
1840	1786	1717	1730	1843	
1865	1788	1773	1748	1847	
1861	1782	1667	1801	1856	
1914	1790	1687	1729	1920	
1820	1829	1732	1680	1868	
1831	1785	1737	1753	1839	
1827	1747	1718	1754	1835	
1750	1804	1655	1717	1837	
1849	1734	1685	1736	1871	
1798	1757	1737	1775	1791	
1792	1797	1659	1825	1818	
1785	1760	1692	1684	1878	
1759	1758	1683	1711	1802	
1862	1810	1760	1723	1873	
1886	1721	1724	1718	1853	
1868	1740	1661	1820	1956	
1860	1826	1683	1672	1822	
1883	1775	1746	1718	1807	
1824	1735	1648	1818	1835	
1764	1800	1631	1737	1859	
1794	1683	1635	1726	1861	
1843	1803	1681	1735	1869	
1831	1750	1648	1699	1804	
1766	1770	1622	1719	1877	
1817	1711	1602	1710	1884	
1792	1746	1644	1768	1839	
1731	1738	1647	1709	1880	
1796	1799	1633	1804	1816	
1839	1754	1656	1733	1834	
1881	1688	1657	1640	1854	
1785	1747	1720	1673	1818	
1769	1736	1675	1676	1836	
1783	1727	1637	1707	1861	
1840	1782	1660	1769	1747	
1800	1782	1735	1698	1857	
1850	1769	1704	1727	1827	
1807	1754	1705	1678	1809	
1800	1704	1661	1701	1817	
1762	1679	1679	1736	1849	
1933	1764	1632	1657	1890	
1824	1794	1740	1629	1820	
1789	1722	1661	1683	1804	
1775	1707	1693	1678	1857	
1763	1771	1596	1695	1889	
1823	1765	1707	1704	1831	
1786	1708	1732	1669	1840	
1836	1797	1661	1798	1760	
1735	1778	1615	1765	1873	
1792	1775	1739	1756	1817	
1752	1687	1625	1716	1817	
1834	1764	1688	1683	1829	
1797	1793	1718	1694	1757	
1778	1738	1725	1703	1736	
1779	1717	1703	1686	1792	
1836	1788	1685	1714	1851	
1833	1754	1679	1727	1729	
1744	1744	1742	1708	1809	
1743	1781	1684	1684	1763	
1821	1751	1590	1768	1821	
1816	1737	1715	1616	1807	
1769	1755	1727	1733	1709	
1820	1844	1735	1728	1716	
1739	1750	1739	1674	1827	
1852	1729	1659	1774	1746	
1846	1731	1681	1684	1788	
1815	1737	1743	1663	1714	
1798	1754	1740	1695	1868	
1752	1704	1688	1723	1748	
1828	1767	1735	1634	1746	
1942	1799	1694	1602	1767	
1841	1839	1693	1707	1717	
1824	1765	1766	1721	1746	
1783	1782	1738	1736	1815	
1850	1854	1743	1638	1803	
1793	1704	1623	1732	1810	
1804	1755	1817	1693	1812	
1832	1828	1790	1662	1793	
1745	1787	1710	1666	1778	
1797	1783	1765	1636	1726	
1778	1734	1811	1695	1742	
1756	1818	1804	1699	1770	
1780	1793	1822	1623	1789	
1813	1824	1800	1682	1801	
1863	1831	1757	1736	1722	
1861	1788	1760	1715	1650	
1818	1822	1770	1691	1831	
1869	1790	1842	1719	1654	
1794	1811	1745	1728	1725	
1851	1838	1837	1742	1690	
1814	1845	1859	1718	1665	
1857	1800	1808	1667	1680	
1794	1789	1834	1665	1726	
1859	1837	1775	1661	1755	
1812	1790	1812	1714	1718	
1898	1891	1919	1728	1722	
1827	1883	1843	1640	1743	
1795	1808	1848	1755	1732	
1769	1846	1833	1673	1713	
1743	1892	1872	1680	1687	
1840	1800	1852	1636	1721	
1823	1875	1844	1665	1775	
1779	1805	1891	1635	1754	
1826	1751	1846	1658	1723	
1900	1839	1899	1677	1714	
1814	1781	1801	1720	1759	
1859	1793	1855	1671	1710	
1877	1781	1860	1605	1676	
1915	1843	1866	1766	1714	
1822	1792	1918	1748	1649	
1827	2000	1901	1710	1765	
1884	1889	1879	1681	1721	
1801	1887	1763	1692	1736	
1813	1847	1777	1710	1692	
1841	1860	1803	1766	1793	
1853	1880	1888	1720	1732	
1813	1931	1808	1681	1719	
1804	1797	1876	1685	1650	
1799	1819	1854	1684	1708	
1869	1895	1810	1669	1745	
1796	1901	1801	1672	1695	
1792	1894	1832	1601	1708	
1844	1846	1885	1685	1728	
1826	1815	1909	1734	1711	
1830	1889	1821	1719	1678	
1815	1767	1875	1623	1747	
1835	1829	1809	1710	1756	
1771	1858	1830	1749	1715	
1846	1831	1864	1732	1703	
1845	1792	1806	1671	1743	
1809	1777	1845	1689	1753	
1874	1806	1805	1729	1705	
1828	1823	1854	1700	1724	
1814	1870	1750	1691	1722	
1842	1887	1790	1628	1689	
1803	1840	1809	1658	1722	
1862	1874	1826	1722	1700	
1852	1873	1822	1679	1726	
1736	1813	1766	1741	1685	
1814	1956	1805	1655	1667	
1861	1785	1670	1707	1726	
1754	1811	1764	1749	1740	
1795	1817	1787	1667	1791	
1695	1756	1754	1700	1763	
1829	1810	1846	1708	1741	
1812	1771	1814	1700	1693	
1840	1840	1718	1710	1725	
1802	1788	1661	1704	1694	
1697	1796	1754	1638	1771	
1788	1803	1798	1636	1688	
1797	1798	1746	1719	1687	
1765	1763	1730	1666	1712	
1772	1741	1790	1636	1759	
1770	1757	1774	1661	1777	
1795	1764	1769	1721	1747	
1773	1824	1742	1616	1682	
1818	1711	1724	1679	1668	
1764	1785	1687	1734	1655	
1813	1755	1701	1650	1752	
1817	1736	1735	1680	1745	
1695	1751	1635	1651	1832	
1768	1697	1719	1681	1757	
1802	1755	1673	1627	1754	
1790	1791	1640	1749	1732	
1750	1788	1640	1668	1694	
1787	1703	1596	1695	1805	
1783	1747	1629	1648	1814	
1776	1706	1701	1697	1748	
1726	1756	1694	1672	1738	
1773	1778	1623	1711	1741	
1775	1728	1730	1624	1701	
1763	1711	1650	1685	1795	
1736	1653	1721	1638	1754	
1800	1693	1640	1673	1739	
1731	1680	1616	1617	1789	
1794	1796	1609	1680	1741	
1703	1711	1624	1562	1787	
1818	1668	1647	1671	1723	
1799	1695	1622	1667	1790	
1751	1719	1606	1675	1730	
1773	1654	1691	1644	1679	
1729	1702	1614	1607	1723	
1773	1675	1652	1673	1691	
1773	1685	1582	1681	1711	
1762	1742	1560	1632	1791	
1720	1634	1631	1618	1786	
1675	1724	1602	1653	1736	
1811	1640	1552	1637	1828	
1787	1611	1547	1639	1809	
1679	1646	1623	1641	1766	
1705	1679	1639	1661	1723	
1754	1659	1618	1680	1745	
1709	1621	1583	1642	1706	
1722	1655	1661	1711	1731	
1748	1687	1559	1720	1830	
1688	1633	1563	1689	1764	
1729	1723	1575	1720	1714	
1751	1683	1583	1648	1790	
1727	1625	1571	1677	1735	
1689	1682	1543	1654	1724	
1692	1657	1598	1676	1803	
1748	1630	1592	1620	1725	
1814	1655	1566	1624	1797	
1724	1652	1621	1705	1794	
1691	1627	1609	1660	1738	
1659	1646	1699	1632	1766	
1726	1675	1658	1654	1710	
1756	1676	1593	1745	1755	
1713	1690	1558	1733	1624	
1821	1679	1590	1678	1755	
1676	1745	1555	1657	1680	
1758	1707	1531	1604	1758	
1708	1642	1696	1626	1717	
1754	1689	1570	1653	1702	
1652	1651	1560	1672	1756	
1758	1685	1596	1644	1723	
1731	1590	1567	1655	1737	
1668	1634	1634	1666	1735	
1760	1649	1606	1629	1698	
1694	1636	1640	1639	1759	
1732	1670	1587	1621	1686	
1733	1624	1625	1658	1739	
1661	1632	1602	1614	1741	
1828	1693	1650	1659	1620	
1652	1587	1644	1550	1703	
1723	1699	1608	1657	1680	
1683	1670	1671	1733	1691	
1766	1732	1620	1543	1721	
1721	1615	1631	1657	1803	
1749	1781	1705	1686	1704	
1739	1708	1652	1651	1645	
1780	1710	1679	1660	1706	
1754	1690	1535	1652	1641	
1667	1812	1694	1635	1638	
1764	1705	1583	1678	1714	
1703	1621	1627	1661	1680	
1714	1759	1660	1624	1714	
1749	1688	1679	1617	1676	
1712	1727	1711	1579	1747	
1768	1708	1621	1655	1685	
1775	1718	1684	1567	1687	
1727	1770	1673	1670	1677	
1810	1737	1698	1670	1624	
1822	1734	1700	1716	1708	
1758	1789	1657	1666	1655	
1746	1691	1707	1627	1649	
1696	1706	1694	1624	1667	
1795	1745	1751	1595	1723	
1756	1634	1685	1619	1651	
1803	1717	1716	1637	1665	
1791	1708	1729	1669	1643	
1772	1722	1671	1576	1694	
1703	1815	1672	1622	1660	
1819	1761	1720	1597	1684	
1656	1703	1766	1676	1610	
1829	1684	1641	1605	1770	
1760	1804	1803	1674	1714	
1738	1703	1714	1587	1636	
1631	1763	1644	1625	1665	
1795	1676	1803	1640	1725	
1805	1756	1723	1627	1686	
1747	1785	1836	1623	1688	
1710	1768	1720	1620	1757	
1780	1708	1721	1701	1720	
1760	1756	1709	1601	1692	
1825	1797	1765	1560	1610	
1775	1781	1791	1627	1763	
1727	1720	1681	1566	1688	
1745	1781	1743	1643	1629	
1673	1782	1706	1620	1626	
1743	1814	1776	1556	1606	
1714	1775	1786	1597	1644	
1688	1779	1674	1583	1617	
1756	1760	1731	1570	1624	
1804	1705	1708	1668	1608	
1774	1845	1855	1553	1606	
1765	1780	1749	1641	1684	
1699	1714	1761	1620	1662	
1778	1817	1743	1685	1578	
1800	1714	1813	1570	1713	
1703	1785	1809	1601	1675	
1837	1735	1762	1560	1629	
1825	1733	1685	1626	1675	
1843	1803	1758	1604	1627	
1753	1750	1808	1622	1587	
1783	1830	1688	1656	1680	
1745	1743	1753	1627	1666	
1792	1741	1813	1564	1663	
1754	1781	1728	1616	1670	
1803	1825	1802	1631	1645	
1702	1813	1809	1625	1673	
1744	1787	1806	1621	1708	
1710	1762	1758	1608	1630	
1757	1795	1759	1602	1641	
1794	1791	1781	1586	1639	
1770	1739	1783	1608	1624	
1779	1780	1695	1565	1633	
1820	1784	1763	1615	1612	
1822	1726	1788	1690	1661	
1742	1793	1735	1621	1600	
1756	1722	1865	1571	1656	
1738	1695	1695	1617	1637	
1784	1745	1744	1597	1696	
1707	1730	1681	1610	1602	
1746	1745	1666	1580	1694	
1798	1748	1696	1635	1589	
1766	1781	1680	1548	1613	
1747	1673	1690	1586	1606	
1795	1705	1705	1530	1635	
1734	1693	1776	1617	1672	
1762	1698	1762	1600	1608	
1722	1704	1794	1687	1694	
1783	1777	1722	1582	1703	
1775	1755	1686	1567	1576	
1748	1726	1620	1591	1702	
1731	1654	1737	1586	1714	
1769	1699	1612	1574	1697	
1718	1790	1741	1647	1703	
1713	1752	1632	1553	1692	
1717	1695	1645	1585	1659	
1691	1713	1743	1665	1735	
1715	1666	1699	1624	1697	
1752	1747	1686	1652	1784	
1672	1697	1647	1631	1705	
1681	1654	1705	1578	1691	
1750	1713	1614	1711	1704	
1735	1719	1597	1611	1634	
1683	1673	1697	1583	1705	
1716	1634	1608	1642	1676	
1690	1704	1598	1529	1663	
1710	1659	1657	1531	1667	
1753	1712	1621	1594	1701	
1747	1599	1646	1582	1562	
1699	1694	1621	1642	1721	
1676	1658	1633	1619	1693	
1666	1625	1609	1564	1656	
1691	1701	1634	1527	1688	
1684	1609	1629	1618	1633	
1710	1707	1599	1592	1679	
1631	1666	1647	1628	1672	
1617	1686	1568	1592	1708	
1787	1677	1641	1606	1660	
1626	1636	1515	1617	1666	
1675	1642	1516	1555	1726	
1705	1645	1538	1634	1670	
1675	1622	1554	1567	1709	
1675	1654	1535	1653	1648	
1632	1621	1548	1618	1742	
1622	1646	1541	1637	1612	
1678	1687	1573	1530	1690	
1712	1587	1487	1587	1689	
1617	1593	1521	1654	1732	
1620	1630	1516	1579	1672	
1626	1638	1608	1682	1780	
1641	1612	1563	1568	1660	
1710	1580	1571	1544	1638	
1670	1644	1533	1558	1705	
1603	1662	1550	1593	1698	
1726	1598	1542	1521	1666	
1711	1567	1571	1617	1643	
1698	1620	1578	1563	1671	
1698	1631	1504	1566	1719	
1635	1494	1574	1588	1646	
1616	1559	1520	1595	1704	
1619	1659	1479	1634	1660	
1566	1530	1464	1617	1683	
1533	1620	1554	1596	1698	
1617	1552	1492	1582	1655	
1631	1624	1495	1527	1665	
1610	1577	1524	1555	1645	
1645	1509	1458	1623	1686	
1705	1600	1554	1602	1730	
1600	1671	1495	1571	1708	
1600	1605	1520	1509	1644	
1623	1565	1458	1591	1641	
1633	1573	1573	1595	1645	
1660	1600	1474	1529	1697	
1662	1623	1495	1525	1658	
1687	1631	1522	1614	1745	
1591	1577	1533	1587	1620	
1636	1516	1561	1529	1690	
1648	1553	1547	1612	1634	
1665	1580	1584	1548	1602	
1617	1539	1573	1497	1662	
1648	1599	1534	1537	1567	
1649	1636	1527	1601	1610	
1589	1580	1553	1570	1523	
1625	1591	1599	1520	1723	
1615	1629	1504	1533	1633	
1611	1576	1549	1565	1651	
1627	1561	1485	1600	1613	
1632	1547	1515	1470	1607	
1638	1545	1572	1473	1553	
1674	1618	1552	1616	1548	
1669	1584	1607	1499	1640	
1651	1599	1550	1479	1545	
1680	1619	1610	1510	1534	
1639	1586	1532	1580	1589	
1626	1575	1530	1516	1578	
1536	1527	1630	1545	1604	
1628	1592	1546	1623	1597	
1703	1524	1555	1490	1585	
1615	1547	1567	1517	1641	
1657	1596	1574	1547	1533	
1630	1577	1575	1501	1629	
1648	1583	1517	1559	1561	
1666	1612	1592	1591	1684	
1590	1649	1579	1487	1556	
1572	1561	1589	1500	1536	
1557	1588	1622	1513	1630	
1569	1565	1573	1495	1502	
1656	1618	1622	1542	1559	
1542	1611	1611	1520	1539	
1588	1653	1582	1545	1588	
1587	1670	1545	1515	1557	
1583	1565	1565	1520	1492	
1568	1532	1536	1525	1602	
1613	1605	1591	1492	1498	
1600	1599	1556	1505	1496	
1559	1552	1565	1467	1467	
1656	1540	1547	1549	1550	
1588	1608	1566	1565	1582	
1619	1592	1546	1477	1448	
1612	1532	1646	1541	1409	
1611	1629	1613	1537	1533	
1682	1554	1609	1486	1460	
1683	1589	1605	1453	1440	
1577	1594	1602	1483	1521	
1629	1569	1612	1500	1485	
1595	1547	1594	1496	1465	
1590	1583	1634	1461	1557	
1640	1572	1578	1435	1433	
1593	1530	1571	1400	1507	
1558	1520	1658	1393	1456	
1532	1522	1557	1420	1381	
1605	1529	1599	1371	1375	
1625	1581	1558	1420	1424	
1525	1491	1587	1424	1387	
1545	1534	1571	1359	1449	
1582	1584	1633	1399	1393	
1478	1462	1618	1380	1397	
1561	1504	1658	1363	1329	
1537	1560	1528	1371	1351	
1577	1500	1581	1460	1382	
1527	1515	1554	1370	1389	
1556	1527	1517	1421	1426	
1504	1436	1602	1365	1347	
1521	1413	1638	1315	1298	
1477	1463	1569	1323	1324	
1497	1434	1546	1457	1275	
1490	1450	1560	1366	1252	
1556	1412	1570	1309	1288	
1447	1447	1437	1350	1338	
1486	1418	1528	1331	1323	
1475	1440	1532	1300	1301	
1417	1437	1453	1327	1291	
1425	1326	1512	1341	1171	
1446	1387	1483	1337	1265	
1379	1391	1460	1305	1233	
1488	1317	1498	1272	1217	
1420	1397	1445	1269	1180	
1428	1357	1439	1293	1208	
1372	1358	1478	1297	1275	
1422	1325	1402	1259	1252	
1444	1273	1481	1263	1192	
1385	1307	1422	1250	1179	
1411	1261	1376	1274	1172	
1349	1328	1412	1221	1163	
1397	1267	1348	1268	1188	
1317	1171	1383	1244	1211	
1357	1158	1302	1170	1210	
1306	1194	1362	1197	1153	
1302	1187	1326	1184	1156	
1310	1219	1294	1204	1125	
1311	1197	1261	1224	1147	
1264	1180	1340	1136	1127	
1261	1202	1298	1170	1114	
1288	1181	1244	1158	1084	
1203	1178	1247	1164	1104	
1257	1124	1188	1108	1098	
1312	1059	1206	1127	1055	
1191	1085	1241	1137	1031	
1248	1049	1211	1149	1064	
1252	1040	1154	1101	1050	
1189	993	1172	1080	971	
1172	1010	1171	1060	1056	
1170	1017	1161	1117	1071	
1172	958	1105	1079	1055	
1130	934	1150	1047	924	
1180	943	1078	1099	948	
1106	923	1129	1031	993	
1105	944	1129	1036	925	
1081	909	1064	1066	931	
1056	872	1021	1066	965	
1092	881	1028	968	895	
1090	819	1006	953	951	
1023	902	1017	921	905	
1063	816	989	980	977	
980	828	960	966	860	
1033	786	920	971	907	
1030	727	995	1010	882	
963	744	966	1029	896	
981	765	948	972	845	
969	718	916	950	791	
936	725	926	886	841	
971	729	897	882	875	
934	709	869	925	807	
886	686	903	915	797	
894	716	884	868	833	
911	707	823	888	778	
872	682	818	920	805	
857	656	854	934	792	
879	687	831	916	719	
922	661	824	816	739	
899	605	756	876	751	
870	599	803	841	747	
852	594	757	810	712	
817	613	712	826	712	
749	564	785	783	685	
835	603	756	811	726	
821	576	713	832	700	
811	571	743	798	681	
785	546	792	808	678	
747	535	775	752	688	
738	497	708	748	632	
732	527	706	758	614	
786	490	736	773	711	
768	519	780	748	624	
697	504	671	731	621	
671	472	704	701	613	
703	437	682	751	618	
657	475	688	709	617	
679	481	699	750	609	
681	507	675	722	608	
692	465	650	675	601	
640	468	613	669	573	
678	415	640	692	560	
676	440	638	656	553	
625	447	631	658	555	
617	411	687	673	550	
605	444	599	615	527	
649	429	602	630	486	
588	452	611	591	541	
604	431	594	583	548	
634	411	603	593	486	
600	396	605	618	535	
531	412	560	636	491	
564	407	544	639	508	
567	360	536	555	446	
565	349	528	601	455	
566	359	505	557	478	
536	364	561	552	441	
545	369	549	538	436	
514	337	541	528	447	
487	372	530	549	452	
549	343	517	538	415	
528	372	487	503	466	
475	365	517	531	433	
515	346	492	503	407	
466	341	506	528	415	
491	316	454	547	414	
493	321	483	515	386	
489	290	440	474	430	
440	292	440	498	428	
447	359	436	470	410	
446	296	468	450	432	
422	301	435	490	373	
466	319	437	423	396	
400	297	434	460	363	
393	323	408	433	378	
431	275	402	450	374	
400	278	415	425	393	
424	297	413	467	376	
402	308	393	465	339	
373	285	403	393	346	
405	262	409	412	347	
392	278	354	437	308	
384	298	409	420	342	
363	283	368	431	335	
380	242	387	406	323	
366	283	328	433	335	
350	307	353	380	314	
391	274	343	392	328	
365	272	388	390	313	
329	260	349	342	302	
374	268	352	368	324	
308	270	362	361	270	
329	260	354	374	289	
359	257	350	350	281	
346	253	375	360	277	
331	257	323	321	334	
338	250	319	344	296	
315	236	332	355	266	
340	239	328	357	288	
345	246	307	330	281	
288	255	318	315	277	
321	235	349	313	280	
321	264	311	363	247	
334	261	343	324	301	
294	247	283	317	260	
255	225	292	285	270	
315	237	306	325	298	
282	234	310	325	274	
310	241	302	285	258	
296	234	293	304	266	
282	232	293	320	230	
274	268	282	278	260	
284	265	272	299	272	
255	235	282	289	271	
270	222	279	317	251	
273	246	295	285	245	
252	235	281	282	232	
286	228	267	286	276	
266	236	286	296	270	
269	234	300	263	253	
257	228	258	284	252	
278	211	292	272	236	
242	203	281	266	223	
273	223	302	259	241	
263	217	248	237	233	
286	198	261	277	225	
235	216	265	284	221	
262	216	241	262	237	
253	223	263	235	219	
251	235	241	255	228	
255	222	261	250	215	
228	228	258	244	263	
248	223	240	218	237	
257	236	231	217	238	
234	231	214	235	217	
255	247	222	247	235	
268	236	257	256	235	
254	215	228	254	209	
232	232	243	264	248	
222	191	232	232	231	
217	237	220	223	222	
205	208	242	235	218	
251	231	253	232	234	
260	199	215	192	212	
244	198	227	215	227	
226	221	231	229	212	
236	200	219	227	214	
241	216	253	206	209	
243	234	237	231	211	
244	213	233	206	199	
208	181	223	234	198	
219	233	220	206	244	
226	202	210	208	218	
222	217	216	248	209	
222	240	216	202	218	
188	210	228	203	221	
209	237	248	229	192	
188	218	204	192	226	
250	215	239	213	219	
259	214	209	202	213	
243	204	211	207	195	
216	220	202	219	216	
234	236	211	207	195	
238	176	220	205	199	
196	207	210	228	225	
220	188	191	218	219	
212	194	194	215	191	
207	213	216	187	208	
196	211	192	200	191	
230	196	233	232	184	
221	216	175	216	201	
205	205	213	202	205	
237	172	209	193	198	
217	211	235	190	210	
225	211	203	197	221	
209	204	211	200	234	
224	203	207	187	234	
187	216	204	203	203	
214	235	200	226	210	
228	175	195	222	191	
202	211	195	216	193	
207	212	206	191	214	
225	230	218	186	224	
219	193	226	204	185	
203	207	191	212	198	
203	208	207	218	203	
219	198	169	190	216	
198	190	197	197	198	
203	187	196	184	204	
212	178	204	202	193	
190	197	188	196	213	
199	233	212	204	178	
223	209	188	190	187	
228	213	220	216	210	
193	195	200	196	199	
225	222	215	199	206	
208	193	235	194	206	
204	210	178	186	211	
207	220	186	203	208	
209	173	200	211	190	
206	188	196	209	192	
187	201	200	190	199	
173	168	213	210	182	
195	186	185	186	198	
200	180	173	201	188	
201	194	219	192	183	
202	220	207	179	214	
185	197	179	189	207	
190	200	198	179	190	
213	194	198	180	174	
195	175	198	189	212	
199	190	204	188	200	
206	201	197	191	195	
212	221	199	183	188	
172	179	208	227	207	
201	190	208	203	205	
202	213	186	191	185	
223	212	227	181	189	
186	209	184	194	196	
186	198	182	183	190	
195	179	182	170	222	
164	161	203	201	183	
195	192	215	192	181	
205	204	198	161	196	
177	215	204	189	202	
204	192	204	200	216	
186	197	177	189	180	
197	192	168	196	211	
212	205	174	189	197	
177	182	175	196	185	
202	181	196	195	181	
217	200	161	177	191	
183	159	191	188	178	
201	187	190	173	211	
190	196	186	191	201	
174	214	198	182	182	
203	205	184	211	191	
191	201	192	159	178	
169	181	204	180	172	
224	182	206	165	179	
208	187	195	193	188	
184	196	182	184	200	
199	197	200	166	207	
197	183	181	167	200	
189	200	187	173	187	
205	188	193	188	185	
164	171	197	175	170	
185	186	159	167	190	
205	202	185	183	182	
203	195	180	171	203	
178	178	177	174	170	
209	195	206	169	181	
202	171	188	192	213	
214	205	181	187	203	
177	187	195	197	196	
194	183	200	172	183	
165	192	169	184	168	
205	196	225	178	183	
183	182	200	190	195	
216	201	190	172	183	
190	199	178	184	192	
189	173	197	188	180	
164	193	184	209	180	
193	195	195	171	172	
179	161	194	182	182	
207	189	175	196	170	
208	193	160	177	201	
181	193	208	157	194	
196	189	177	169	155	
200	181	201	190	172	
212	174	193	160	180	
179	188	198	182	185	
194	193	175	193	200	
189	194	175	161	175	
192	202	184	182	175	
217	191	187	199	174	
183	187	188	175	173	
195	190	202	174	183	
174	170	190	169	184	
173	179	181	180	172	
183	175	177	173	173	
178	160	182	205	163	
164	183	185	171	180	
202	177	171	197	162	
193	186	167	165	178	
190	189	200	174	183	
190	188	178	183	181	
195	187	177	179	172	
207	201	193	171	173	
199	160	181	169	186	
199	178	178	174	205	
194	198	170	161	174	
203	189	189	176	172	
181	211	179	182	191	
201	156	164	179	179	
186	158	190	157	162	
199	191	192	169	184	
179	179	176	181	172	
168	198	175	175	161	
191	194	184	169	176	
170	166	161	189	179	
179	166	186	184	163	
178	182	178	173	188	
168	200	191	191	178	
165	189	151	165	185	
205	166	209	155	162	
177	198	164	160	193	
181	195	180	185	181	
186	181	177	189	185	
181	176	190	188	183	
172	210	168	182	189	
185	175	170	165	200	
187	182	183	167	191	
167	172	177	173	165	
209	191	156	176	159	
176	184	192	160	176	
209	184	193	151	175	
186	175	181	173	158	
185	183	206	171	196	
167	183	179	178	162	
204	165	155	179	188	
175	170	166	163	172	
151	181	155	166	156	
190	180	184	174	182	
169	175	185	166	158	
177	172	168	152	175	
174	175	199	144	158	
195	173	151	166	191	
179	159	152	168	154	
183	153	186	166	161	
178	167	171	179	159	
178	160	196	189	156	
183	181	182	150	162	
176	194	172	159	183	
175	200	161	157	179	
193	180	170	171	165	
185	192	200	172	162	
167	186	167	170	170	
181	174	169	171	171	
179	177	164	177	183	
202	188	171	154	173	
208	175	162	177	175	
178	168	164	148	197	
183	175	153	169	188	
177	173	161	158	178	
178	161	168	154	186	
200	180	178	179	169	
197	175	149	211	179	
175	198	160	176	189	
197	173	172	161	167	
191	147	170	174	184	
191	183	189	165	148	
181	152	186	172	162	
156	141	174	167	179	
182	188	158	174	190	
219	160	168	155	172	
161	157	204	158	171	
155	157	176	191	164	
169	167	163	164	157	
189	177	173	164	186	
179	178	164	145	176	
188	172	182	169	167	
194	171	188	153	180	
164	166	175	162	160	
170	180	165	192	180	
176	174	184	176	139	
182	173	170	169	171	
192	190	168	163	176	
198	172	168	157	173	
204	134	184	151	151	
191	179	187	170	162	
198	158	172	148	185	
181	160	186	186	172	
168	164	175	145	142	
169	141	157	131	179	
167	166	185	174	170	
175	173	170	159	168	
145	143	141	176	177	
147	157	197	169	172	
157	164	167	154	193	
189	154	161	173	164	
175	169	154	155	167	
179	178	160	155	160	
188	165	167	174	157	
179	172	186	175	186	
167	171	157	153	171	
204	147	191	162	164	
181	158	165	165	180	
179	188	159	142	165	
177	184	161	162	167	
187	138	169	142	141	
179	176	165	156	160	
187	185	170	164	170	
177	181	164	174	173	
173	180	137	162	183	
161	169	144	146	165	
171	132	142	166	153	
157	136	155	168	163	
176	152	160	155	160	
168	126	177	184	154	
186	161	184	166	154	
166	158	149	155	169	
179	171	156	172	151	
201	154	152	153	152	
180	149	164	179	182	
166	168	185	152	164	
171	132	164	151	161	
157	174	190	170	148	
174	148	176	166	156	
190	184	140	169	173	
189	155	194	129	160	
172	158	162	164	157	
178	182	163	151	192	
165	199	170	147	173	
170	136	142	152	135	
161	180	164	159	163	
175	174	176	177	154	
158	171	170	159	145	
169	153	163	161	167	
162	152	174	152	196	
172	173	177	155	169	
173	178	174	160	135	
186	179	138	144	145	
180	150	154	183	152	
169	146	145	159	162	
166	165	166	153	159	
171	154	161	154	171	
160	148	168	168	162	
164	175	150	173	154	
195	163	178	128	178	
140	164	163	162	148	
175	166	171	145	161	
152	173	168	134	166	
169	181	169	157	161	
157	140	171	171	159	
154	140	143	166	152	
159	165	154	148	162	
167	165	172	167	157	
192	168	147	163	146	
177	158	171	155	155	
170	187	147	140	140	
195	197	172	162	150	
166	165	183	154	126	
178	145	169	164	148	
155	151	171	157	149	
134	149	177	160	179	
173	162	159	147	177	
191	180	148	151	175	
172	151	148	152	171	
175	156	152	158	163	
168	163	141	143	141	
167	140	163	165	155	
151	155	157	147	140	
160	149	144	160	163	
188	130	197	146	158	
189	172	164	171	166	
169	137	164	164	171	
160	146	148	156	175	
147	153	158	145	161	
163	169	174	145	153	
178	153	165	188	161	
149	140	156	162	185	
178	154	167	132	171	
162	161	167	181	148	
163	142	169	150	155	
147	152	162	134	144	
158	163	179	130	150	
153	148	162	168	166	
163	144	170	158	183	
182	155	161	160	176	
163	153	150	155	145	
158	150	140	148	133	
155	151	158	152	151	
155	158	139	143	146	
148	130	152	151	162	
156	154	166	134	161	
132	159	126	138	170	
187	158	137	151	151	
140	141	152	164	148	
172	152	170	150	150	
152	156	142	157	173	
153	157	171	153	136	
148	146	142	148	160	
161	144	166	153	138	
141	145	149	136	153	
144	171	163	145	138	
166	159	140	150	145	
152	174	146	158	134	
180	144	140	166	126	
150	157	139	130	162	
150	148	162	129	152	
191	158	152	146	161	
171	140	138	160	151	
174	140	146	138	140	
169	149	159	143	158	
166	155	129	148	156	
160	146	140	143	169	
168	156	155	137	164	
155	170	178	155	146	
164	140	166	154	134	
146	142	153	145	143	
165	134	145	144	134	
157	142	124	160	167	
161	128	146	143	162	
136	158	155	143	145	
162	144	152	140	141	
158	146	151	169	157	
169	142	148	134	154	
149	135	150	146	136	
145	147	148	156	154	
154	169	163	145	160	
143	149	168	148	151	
170	145	116	139	164	
160	161	164	149	152	
141	154	153	149	174	
159	132	155	156	157	
159	171	146	136	153	
162	168	160	137	131	
135	129	151	152	142	
160	156	127	140	138	
180	166	155	133	153	
145	156	159	121	145	
146	125	164	136	125	
154	145	152	167	155	
143	135	137	139	128	
141	149	137	147	151	
153	149	157	147	135	
151	162	140	137	144	
162	123	151	138	154	
158	151	144	158	119	
140	170	159	135	161	
159	150	154	146	133	
152	138	156	172	140	
136	144	139	137	134	
176	138	164	158	122	
138	142	157	141	152	
151	144	146	135	163	
144	145	164	139	164	
135	146	138	136	118	
166	151	148	137	120	
145	142	146	152	141	
137	128	142	137	146	
123	137	154	157	152	
139	143	154	159	145	
160	120	137	120	153	
161	127	144	134	147	
142	146	151	149	135	
178	129	135	150	153	
137	145	175	145	131	
144	142	119	142	152	
141	151	144	148	157	
150	127	146	141	160	
