#PicoHarp 300  Histogram Data			04/11/2023 06:39:29 PM
#channels per curve
65536
#display curve no.
0	1	2	
#memory block no.
0	1	2	
#ns/channel
0.1280	0.1280	0.1280	
#counts
1696	1825	1887	
1719	1845	1806	
1888	1936	1914	
1803	2000	1896	
1829	1832	1959	
1821	1876	1872	
1808	1882	1925	
1793	1853	2000	
1798	1839	1925	
1836	1906	1837	
1808	1923	1871	
1714	1927	1819	
1727	1994	1886	
1869	1914	1873	
1767	1833	1798	
1759	1902	1898	
1725	1993	1926	
1834	1890	1849	
1699	1812	1883	
1798	1905	1860	
1735	1876	1908	
1791	1942	1827	
1791	1942	1937	
1805	1833	1914	
1795	1919	1827	
1808	1883	1917	
1732	1897	1954	
1756	1819	1901	
1728	1875	1902	
1799	1870	1819	
1786	1878	1866	
1737	1857	1931	
1779	1889	1945	
1772	1963	1872	
1717	1923	1865	
1779	1858	1824	
1746	1826	1898	
1833	1866	1899	
1765	1875	1820	
1846	1934	1907	
1759	1888	1927	
1824	1807	1834	
1755	1873	1897	
1742	1872	1857	
1760	1920	1899	
1784	1846	1860	
1819	1888	1736	
1819	1885	1769	
1814	1834	1929	
1872	1848	1846	
1795	1868	1916	
1785	1941	1824	
1775	1932	1878	
1798	1820	1905	
1803	1850	1804	
1827	1875	1817	
1786	1887	1802	
1858	1858	1808	
1763	1839	1862	
1803	1883	1797	
1774	1888	1851	
1769	1900	1788	
1726	1862	1825	
1834	1798	1792	
1821	1926	1757	
1855	1852	1858	
1794	1810	1811	
1890	1851	1797	
1856	1954	1841	
1857	1806	1860	
1959	1768	1802	
1895	1898	1775	
1847	1808	1764	
1864	1788	1846	
1839	1878	1777	
1927	1881	1844	
1872	1812	1823	
1889	1835	1776	
1900	1864	1767	
1868	1808	1770	
1820	1871	1777	
1858	1849	1748	
1794	1857	1802	
1880	1804	1726	
1827	1927	1771	
1829	1835	1735	
1840	1877	1763	
1837	1957	1838	
1911	1851	1776	
1962	1810	1828	
1901	1829	1787	
1921	1865	1694	
1877	1818	1739	
1831	1842	1742	
1872	1883	1721	
1893	1879	1733	
1856	1830	1761	
1882	1837	1786	
1909	1916	1786	
1845	1894	1724	
1891	1889	1784	
2000	1877	1789	
1840	1878	1807	
1912	1860	1744	
1888	1852	1778	
1873	1900	1798	
1907	1852	1792	
1933	1795	1771	
1915	1918	1783	
1870	1923	1757	
1891	1941	1796	
1907	1887	1801	
1858	1834	1816	
1852	1949	1711	
1862	1880	1764	
1881	1976	1745	
1937	1866	1782	
1846	1855	1788	
1798	1813	1713	
1958	1853	1829	
1896	1849	1763	
1828	1830	1852	
1883	1876	1799	
1839	1836	1741	
1764	1873	1843	
1852	1830	1750	
1911	1798	1760	
1828	1781	1839	
1819	1942	1764	
1862	1874	1738	
1797	1851	1975	
1815	1821	1808	
1810	1829	1922	
1793	1786	1743	
1816	1846	1839	
1774	1808	1792	
1777	1875	1873	
1740	1901	1797	
1783	1881	1757	
1785	1813	1780	
1772	1818	1801	
1797	1861	1787	
1845	1819	1845	
1783	1868	1828	
1748	1938	1841	
1730	1847	1810	
1831	1889	1917	
1780	1781	1822	
1774	1905	1848	
1743	1756	1808	
1764	1855	1765	
1803	1886	1855	
1781	1781	1832	
1823	1842	1928	
1729	1873	1813	
1787	1846	1785	
1763	1896	1885	
1823	1860	1852	
1801	1836	1836	
1674	1811	1833	
1675	1860	1828	
1801	1850	1840	
1669	1878	1824	
1807	1855	1745	
1773	1818	1857	
1733	1918	1818	
1782	1860	1895	
1677	1751	1851	
1666	1748	1849	
1726	1869	1862	
1752	1935	1804	
1677	1840	1839	
1719	1869	1855	
1698	1858	1798	
1700	1855	1794	
1682	1793	1846	
1702	1818	1894	
1732	1767	1786	
1729	1849	1792	
1716	1864	1825	
1698	1865	1769	
1673	1868	1855	
1700	1820	1833	
1665	1922	1836	
1709	1860	1855	
1761	1827	1862	
1721	1832	1778	
1660	1812	1841	
1740	1863	1844	
1760	1894	1815	
1767	1813	1849	
1677	1799	1837	
1673	1789	1786	
1759	1776	1781	
1726	1838	1797	
1612	1899	1781	
1613	1827	1845	
1686	1754	1745	
1647	1865	1883	
1739	1819	1765	
1706	1799	1834	
1782	1782	1771	
1710	1883	1829	
1653	1839	1920	
1714	1909	1828	
1697	1855	1839	
1779	1826	1854	
1710	1770	1877	
1737	1835	1783	
1711	1742	1810	
1748	1866	1777	
1755	1862	1729	
1683	1836	1840	
1748	1806	1769	
1741	1805	1862	
1760	1739	1830	
1714	1801	1801	
1736	1868	1803	
1758	1813	1797	
1704	1798	1831	
1735	1821	1782	
1723	1837	1776	
1672	1844	1747	
1763	1845	1810	
1710	1875	1734	
1739	1840	1804	
1702	1857	1768	
1741	1776	1728	
1758	1798	1716	
1749	1789	1754	
1775	1854	1782	
1767	1757	1764	
1726	1793	1740	
1789	1788	1782	
1805	1801	1718	
1791	1792	1809	
1773	1798	1680	
1817	1771	1825	
1770	1857	1727	
1747	1769	1764	
1697	1763	1674	
1838	1824	1738	
1739	1814	1728	
1798	1851	1723	
1719	1871	1744	
1709	1821	1816	
1760	1864	1733	
1876	1809	1692	
1824	1792	1748	
1748	1778	1732	
1787	1788	1736	
1803	1850	1618	
1805	1809	1642	
1881	1726	1735	
1791	1804	1819	
1895	1864	1662	
1771	1815	1788	
1780	1864	1699	
1844	1747	1797	
1774	1844	1739	
1818	1774	1740	
1783	1683	1675	
1891	1795	1706	
1771	1786	1699	
1779	1800	1703	
1807	1842	1707	
1822	1746	1698	
1773	1806	1637	
1845	1842	1739	
1805	1745	1732	
1787	1790	1695	
1800	1809	1724	
1822	1839	1619	
1843	1836	1724	
1774	1782	1829	
1776	1774	1668	
1830	1859	1714	
1767	1833	1663	
1840	1802	1688	
1814	1836	1737	
1840	1806	1652	
1803	1857	1707	
1812	1814	1679	
1892	1782	1773	
1892	1832	1746	
1774	1798	1769	
1765	1771	1717	
1834	1874	1774	
1868	1893	1717	
1838	1852	1739	
1725	1770	1758	
1743	1803	1721	
1832	1834	1732	
1773	1813	1705	
1843	1807	1731	
1789	1823	1711	
1762	1857	1717	
1778	1774	1804	
1730	1788	1735	
1791	1782	1746	
1789	1862	1762	
1802	1729	1838	
1814	1851	1694	
1768	1789	1759	
1716	1845	1732	
1833	1814	1698	
1827	1782	1725	
1746	1815	1763	
1687	1682	1737	
1775	1749	1798	
1761	1759	1689	
1725	1848	1808	
1676	1712	1724	
1691	1741	1765	
1717	1825	1782	
1745	1744	1761	
1713	1757	1831	
1832	1757	1817	
1756	1768	1740	
1665	1747	1871	
1735	1786	1702	
1728	1766	1678	
1804	1813	1750	
1743	1787	1817	
1690	1834	1803	
1689	1825	1775	
1713	1792	1744	
1667	1854	1790	
1655	1802	1754	
1667	1771	1688	
1705	1829	1805	
1676	1830	1742	
1732	1799	1796	
1636	1724	1816	
1681	1777	1784	
1672	1745	1725	
1638	1836	1773	
1597	1770	1725	
1649	1867	1725	
1653	1845	1768	
1711	1728	1785	
1595	1764	1770	
1669	1809	1706	
1690	1749	1842	
1713	1867	1745	
1616	1843	1813	
1597	1686	1648	
1604	1757	1707	
1652	1800	1743	
1714	1837	1781	
1649	1731	1801	
1666	1738	1762	
1615	1803	1825	
1661	1753	1791	
1634	1775	1811	
1629	1739	1866	
1541	1749	1835	
1673	1790	1823	
1663	1791	1816	
1650	1797	1772	
1671	1722	1802	
1625	1714	1775	
1586	1764	1794	
1660	1804	1725	
1670	1727	1855	
1649	1737	1742	
1633	1774	1774	
1626	1764	1769	
1686	1825	1714	
1659	1773	1784	
1630	1780	1791	
1652	1741	1798	
1690	1709	1758	
1700	1734	1739	
1601	1794	1739	
1624	1721	1773	
1615	1750	1763	
1718	1712	1722	
1604	1758	1814	
1645	1760	1726	
1655	1718	1735	
1619	1758	1829	
1637	1745	1732	
1658	1822	1715	
1658	1724	1710	
1649	1719	1778	
1636	1801	1720	
1674	1756	1740	
1682	1774	1758	
1754	1740	1691	
1678	1714	1751	
1680	1747	1703	
1728	1717	1732	
1673	1729	1728	
1738	1744	1683	
1738	1808	1715	
1688	1812	1729	
1710	1792	1733	
1677	1754	1616	
1720	1767	1701	
1695	1747	1705	
1695	1735	1646	
1735	1761	1656	
1708	1722	1673	
1718	1724	1747	
1680	1780	1738	
1708	1688	1732	
1745	1765	1654	
1732	1739	1705	
1739	1744	1668	
1807	1724	1695	
1790	1768	1734	
1696	1771	1674	
1780	1760	1665	
1810	1714	1687	
1732	1719	1723	
1697	1663	1678	
1734	1743	1599	
1707	1755	1634	
1718	1822	1741	
1742	1777	1655	
1825	1773	1651	
1807	1752	1595	
1699	1733	1688	
1820	1781	1684	
1742	1776	1649	
1735	1792	1669	
1821	1704	1730	
1686	1752	1629	
1773	1752	1648	
1753	1804	1619	
1786	1759	1678	
1784	1701	1705	
1729	1778	1606	
1842	1729	1660	
1749	1800	1669	
1750	1699	1724	
1819	1752	1600	
1676	1685	1613	
1762	1691	1730	
1823	1740	1727	
1745	1722	1690	
1733	1691	1685	
1788	1669	1620	
1690	1751	1644	
1742	1824	1610	
1774	1741	1632	
1839	1778	1603	
1811	1744	1635	
1765	1692	1676	
1719	1817	1625	
1731	1804	1720	
1768	1724	1669	
1756	1751	1665	
1784	1825	1624	
1755	1728	1629	
1706	1725	1695	
1725	1742	1719	
1755	1766	1652	
1768	1758	1692	
1785	1787	1671	
1779	1747	1649	
1740	1801	1610	
1782	1721	1665	
1671	1791	1688	
1718	1783	1619	
1694	1709	1675	
1717	1686	1689	
1808	1717	1683	
1613	1788	1674	
1586	1808	1681	
1753	1738	1693	
1631	1771	1764	
1706	1689	1720	
1628	1654	1675	
1716	1697	1644	
1666	1761	1650	
1649	1739	1732	
1670	1710	1724	
1636	1705	1681	
1746	1678	1621	
1705	1726	1723	
1707	1728	1699	
1727	1797	1719	
1627	1735	1700	
1665	1782	1701	
1645	1758	1725	
1584	1725	1652	
1693	1725	1758	
1600	1700	1634	
1589	1807	1673	
1694	1737	1695	
1657	1792	1769	
1676	1706	1708	
1654	1708	1655	
1631	1874	1784	
1607	1693	1767	
1617	1657	1756	
1642	1733	1708	
1628	1694	1715	
1638	1721	1658	
1594	1749	1717	
1635	1721	1681	
1607	1757	1711	
1582	1688	1752	
1684	1816	1757	
1628	1710	1709	
1603	1680	1704	
1562	1686	1786	
1622	1769	1709	
1666	1752	1771	
1508	1682	1698	
1614	1738	1717	
1614	1689	1703	
1540	1666	1659	
1589	1735	1779	
1545	1734	1712	
1523	1718	1634	
1569	1790	1653	
1629	1727	1694	
1605	1754	1687	
1567	1744	1672	
1594	1782	1684	
1552	1590	1697	
1634	1793	1659	
1638	1776	1654	
1559	1737	1761	
1613	1703	1759	
1486	1744	1710	
1599	1755	1703	
1556	1759	1726	
1595	1705	1729	
1594	1653	1661	
1603	1687	1713	
1635	1666	1690	
1614	1739	1741	
1618	1694	1726	
1624	1646	1718	
1620	1691	1648	
1594	1720	1718	
1608	1745	1685	
1566	1738	1724	
1579	1805	1754	
1638	1657	1668	
1537	1673	1710	
1615	1659	1773	
1576	1702	1626	
1604	1708	1651	
1606	1728	1685	
1648	1728	1614	
1629	1676	1615	
1601	1717	1602	
1620	1671	1706	
1669	1740	1650	
1613	1728	1702	
1664	1719	1708	
1611	1697	1682	
1619	1653	1657	
1597	1696	1646	
1607	1741	1699	
1670	1719	1575	
1637	1661	1673	
1646	1672	1645	
1632	1739	1732	
1627	1654	1687	
1578	1688	1684	
1522	1685	1653	
1686	1647	1625	
1595	1688	1647	
1664	1639	1559	
1625	1675	1589	
1680	1698	1702	
1665	1679	1609	
1703	1758	1579	
1681	1663	1692	
1681	1667	1606	
1622	1668	1615	
1644	1693	1601	
1654	1714	1625	
1674	1691	1556	
1687	1697	1639	
1658	1721	1623	
1703	1720	1661	
1664	1648	1675	
1659	1708	1560	
1632	1643	1592	
1682	1675	1584	
1681	1693	1685	
1735	1719	1578	
1694	1764	1620	
1662	1642	1612	
1621	1716	1575	
1771	1617	1620	
1614	1703	1521	
1684	1787	1648	
1654	1723	1546	
1698	1683	1599	
1598	1694	1607	
1691	1741	1598	
1620	1726	1640	
1620	1628	1647	
1705	1713	1561	
1737	1736	1571	
1649	1676	1606	
1691	1626	1534	
1640	1740	1445	
1657	1645	1586	
1641	1704	1554	
1667	1687	1657	
1669	1766	1630	
1654	1632	1583	
1747	1724	1603	
1701	1735	1591	
1745	1667	1554	
1673	1644	1540	
1692	1672	1556	
1627	1706	1565	
1726	1693	1530	
1636	1719	1513	
1677	1643	1576	
1623	1651	1618	
1661	1719	1662	
1694	1661	1619	
1653	1627	1581	
1555	1607	1629	
1640	1675	1627	
1705	1660	1537	
1660	1656	1558	
1625	1665	1550	
1562	1709	1550	
1730	1639	1643	
1648	1635	1590	
1607	1652	1601	
1703	1717	1621	
1641	1696	1569	
1627	1638	1637	
1612	1673	1556	
1620	1625	1647	
1603	1629	1589	
1622	1720	1608	
1600	1581	1637	
1595	1656	1674	
1579	1637	1604	
1661	1668	1591	
1654	1646	1571	
1561	1642	1596	
1602	1711	1553	
1617	1639	1574	
1517	1699	1612	
1604	1590	1615	
1574	1665	1650	
1540	1656	1559	
1590	1635	1640	
1516	1706	1589	
1497	1635	1624	
1525	1642	1627	
1576	1588	1587	
1424	1644	1599	
1516	1632	1633	
1530	1620	1563	
1506	1629	1640	
1472	1604	1573	
1558	1596	1594	
1441	1612	1589	
1428	1607	1606	
1465	1536	1673	
1454	1627	1541	
1393	1604	1610	
1426	1635	1626	
1435	1652	1627	
1518	1569	1609	
1421	1659	1581	
1415	1641	1566	
1354	1555	1626	
1450	1686	1630	
1422	1563	1560	
1409	1607	1523	
1439	1623	1615	
1361	1608	1560	
1404	1657	1583	
1435	1590	1539	
1399	1532	1536	
1370	1523	1498	
1382	1600	1560	
1399	1560	1566	
1384	1621	1554	
1294	1627	1594	
1323	1569	1542	
1413	1588	1532	
1305	1508	1521	
1381	1615	1540	
1319	1489	1551	
1355	1608	1498	
1330	1541	1532	
1328	1579	1573	
1322	1579	1479	
1310	1534	1545	
1331	1514	1461	
1372	1580	1505	
1372	1495	1547	
1301	1522	1524	
1262	1562	1546	
1341	1512	1557	
1240	1530	1546	
1300	1501	1434	
1250	1521	1599	
1239	1492	1545	
1257	1477	1489	
1258	1518	1458	
1165	1489	1443	
1225	1530	1503	
1254	1482	1484	
1191	1477	1476	
1215	1573	1469	
1240	1500	1512	
1216	1511	1481	
1126	1546	1449	
1158	1443	1456	
1169	1493	1517	
1144	1453	1409	
1151	1438	1452	
1181	1475	1440	
1165	1419	1447	
1115	1402	1457	
1103	1452	1445	
1153	1459	1394	
1067	1443	1460	
1055	1444	1466	
1099	1431	1347	
1109	1436	1379	
1043	1392	1398	
1041	1438	1437	
990	1405	1443	
1055	1406	1435	
1038	1378	1377	
1037	1346	1354	
1023	1422	1435	
1029	1430	1421	
1021	1400	1381	
972	1413	1342	
1074	1398	1398	
977	1339	1334	
994	1385	1288	
1059	1317	1419	
982	1289	1349	
951	1290	1329	
988	1325	1372	
933	1290	1324	
970	1306	1246	
943	1318	1255	
949	1293	1250	
851	1289	1270	
904	1296	1258	
907	1336	1295	
897	1302	1191	
902	1279	1286	
910	1315	1201	
864	1245	1297	
901	1366	1234	
818	1256	1260	
823	1157	1132	
844	1232	1162	
854	1181	1210	
809	1281	1183	
774	1272	1166	
765	1227	1153	
806	1210	1229	
798	1164	1192	
778	1212	1199	
772	1204	1126	
757	1212	1130	
793	1164	1157	
729	1174	1133	
713	1175	1079	
772	1135	1114	
699	1149	1034	
729	1098	1146	
673	1163	1073	
688	1097	1087	
692	1103	1097	
664	1131	1040	
694	1085	1102	
660	1100	1052	
640	1105	1050	
698	1052	1064	
684	1090	988	
674	1028	1030	
677	1032	1068	
637	1031	1025	
626	997	993	
604	1067	1066	
618	1041	994	
609	1047	933	
574	1002	974	
587	1004	1023	
527	1024	947	
535	966	957	
542	951	897	
575	991	936	
518	957	928	
535	900	969	
534	898	924	
495	943	882	
545	919	887	
534	949	871	
497	861	933	
505	939	845	
471	873	879	
448	879	905	
488	933	901	
473	875	839	
460	877	843	
461	871	836	
436	854	793	
436	841	894	
418	803	801	
412	766	824	
390	793	830	
430	806	831	
390	790	747	
373	767	819	
427	766	786	
398	826	713	
396	789	825	
359	764	786	
346	727	770	
386	743	808	
356	747	706	
352	729	732	
332	734	711	
334	717	718	
328	710	714	
375	702	709	
308	708	701	
334	689	692	
366	650	698	
364	620	693	
323	702	670	
293	678	640	
338	676	641	
320	640	598	
318	639	649	
327	586	569	
320	650	579	
307	593	587	
311	583	595	
279	609	666	
312	593	575	
284	582	592	
304	517	557	
284	595	591	
298	545	554	
313	583	549	
272	513	545	
276	562	535	
233	539	524	
276	541	527	
252	556	532	
292	538	480	
295	537	530	
236	505	514	
267	493	500	
237	508	512	
245	532	484	
248	473	485	
282	461	477	
240	491	445	
272	480	455	
270	512	461	
256	462	410	
271	476	435	
252	457	454	
266	441	441	
234	424	427	
256	475	439	
224	394	415	
255	422	412	
259	451	424	
242	428	402	
243	425	410	
213	385	435	
235	411	351	
264	406	425	
248	403	364	
228	397	368	
254	397	359	
238	379	377	
227	395	349	
224	388	334	
248	381	333	
224	354	321	
261	347	341	
244	384	388	
249	376	354	
248	357	366	
203	363	386	
215	366	352	
237	332	310	
279	386	318	
228	342	350	
209	333	313	
223	335	342	
242	327	349	
218	331	314	
204	315	306	
209	352	324	
202	310	324	
229	301	269	
213	350	298	
231	308	281	
237	326	322	
234	284	299	
251	312	303	
213	304	319	
217	322	296	
210	295	304	
215	298	290	
207	313	306	
251	287	267	
225	301	294	
207	289	298	
236	285	283	
206	312	274	
230	295	282	
209	284	276	
235	297	247	
220	302	261	
213	276	296	
209	235	269	
220	292	274	
204	275	258	
208	284	267	
215	285	265	
193	306	287	
232	259	255	
214	262	268	
175	271	238	
208	283	258	
193	271	246	
227	245	264	
198	241	270	
224	240	286	
231	259	242	
193	232	249	
210	257	264	
212	245	241	
225	258	253	
204	248	256	
203	247	234	
215	276	231	
193	257	217	
212	278	240	
205	246	245	
184	249	250	
199	271	226	
195	258	247	
203	263	270	
228	255	245	
190	212	248	
256	264	237	
252	229	235	
215	248	238	
209	258	246	
200	225	246	
217	235	222	
214	258	220	
208	252	230	
206	226	215	
201	226	207	
202	227	239	
172	227	231	
217	245	215	
209	231	245	
197	240	224	
220	246	229	
196	209	211	
203	220	216	
208	243	238	
201	234	208	
199	226	211	
209	225	248	
203	244	216	
202	225	215	
217	241	209	
200	213	251	
207	237	218	
225	202	224	
204	232	193	
202	234	235	
216	222	204	
215	216	220	
214	235	222	
190	246	195	
186	251	242	
168	225	207	
191	233	213	
190	204	212	
228	227	231	
196	217	207	
204	248	223	
183	217	199	
206	198	214	
186	216	210	
198	217	202	
200	213	218	
212	232	216	
203	222	218	
203	210	223	
191	206	215	
201	241	218	
220	214	210	
202	212	212	
213	222	192	
218	240	210	
244	208	193	
218	229	241	
209	228	213	
210	232	185	
208	229	205	
199	204	195	
195	213	232	
189	213	209	
207	208	203	
197	248	226	
200	219	207	
201	189	234	
163	202	208	
222	221	219	
172	226	194	
197	218	247	
212	221	201	
194	223	224	
213	208	210	
194	217	233	
190	235	204	
177	206	205	
202	215	204	
189	223	190	
212	216	200	
195	218	213	
216	212	210	
210	205	176	
178	227	192	
198	209	198	
206	210	203	
184	214	240	
172	194	203	
212	176	200	
167	206	213	
191	202	207	
205	220	211	
177	212	196	
212	195	177	
191	190	196	
209	233	216	
184	190	216	
195	223	232	
189	220	228	
193	194	176	
185	203	214	
198	190	201	
206	243	200	
185	180	208	
200	205	198	
162	219	202	
170	210	193	
184	183	186	
164	214	216	
187	199	192	
171	198	191	
173	209	200	
199	230	209	
194	234	201	
187	201	204	
206	216	228	
185	201	177	
205	197	195	
197	224	214	
172	209	177	
174	224	194	
167	233	177	
175	228	217	
191	225	200	
207	204	184	
190	202	216	
196	192	216	
188	187	208	
176	191	207	
177	194	185	
199	173	196	
186	199	171	
166	228	205	
177	187	191	
205	194	196	
192	226	196	
178	202	193	
185	192	202	
197	184	222	
198	217	194	
204	203	202	
190	226	181	
191	199	213	
218	193	222	
178	213	183	
198	194	203	
198	179	180	
164	195	202	
173	208	207	
162	191	210	
183	193	187	
205	193	186	
172	201	183	
179	182	211	
185	189	206	
182	178	203	
207	187	184	
193	207	185	
199	208	183	
170	228	190	
182	184	205	
199	193	201	
184	194	195	
179	216	197	
190	201	187	
168	180	203	
168	177	182	
169	206	192	
182	174	192	
186	213	192	
201	192	205	
200	185	209	
159	193	183	
167	189	172	
179	203	170	
160	196	204	
199	211	185	
169	214	184	
189	213	188	
200	204	210	
175	182	198	
162	211	198	
173	202	198	
187	187	184	
153	178	197	
204	192	231	
165	203	163	
180	203	196	
184	199	178	
189	207	182	
188	200	179	
192	195	165	
163	212	197	
181	181	215	
181	207	225	
158	185	199	
179	193	191	
190	195	212	
206	195	188	
177	198	183	
177	189	172	
196	192	193	
184	230	164	
166	196	200	
187	184	183	
202	197	186	
170	182	192	
176	205	181	
180	166	192	
182	200	196	
174	210	193	
201	203	180	
190	178	186	
172	182	202	
182	176	211	
168	197	192	
144	221	188	
187	191	177	
176	195	195	
187	231	192	
209	173	177	
187	167	204	
192	174	189	
179	195	185	
179	205	183	
185	214	169	
170	194	182	
179	198	206	
177	184	175	
167	174	182	
149	202	200	
189	177	193	
167	202	195	
198	197	192	
173	198	168	
165	183	202	
169	213	183	
181	186	197	
183	201	182	
178	165	173	
183	177	195	
155	180	195	
174	171	194	
171	188	180	
179	187	185	
168	207	189	
154	194	171	
167	183	175	
183	204	168	
149	185	170	
169	183	198	
166	153	183	
172	179	194	
165	192	186	
182	199	198	
161	166	203	
169	215	183	
195	190	192	
177	192	166	
189	193	166	
154	172	192	
172	201	195	
174	206	171	
165	176	181	
157	174	170	
164	186	176	
172	161	180	
163	192	179	
151	187	174	
173	174	177	
177	185	201	
203	210	207	
154	179	173	
156	160	185	
181	183	207	
180	188	158	
166	169	155	
179	193	159	
155	191	171	
167	197	179	
162	165	183	
200	185	187	
178	188	165	
152	156	182	
173	158	179	
182	182	171	
162	170	181	
157	227	167	
151	178	173	
188	194	174	
169	183	177	
172	166	184	
169	198	159	
182	186	188	
186	172	178	
155	182	172	
176	188	196	
163	195	185	
152	167	217	
158	185	167	
166	178	182	
167	185	176	
162	179	165	
147	184	170	
159	191	178	
146	175	193	
174	168	177	
165	190	192	
168	184	175	
156	178	186	
130	170	176	
152	165	179	
160	173	173	
162	177	185	
158	180	199	
176	186	175	
192	183	188	
139	178	176	
140	161	191	
154	165	181	
133	159	166	
160	178	178	
176	169	181	
178	206	185	
166	147	154	
147	160	176	
143	181	173	
175	160	167	
191	176	171	
169	189	172	
170	158	187	
166	177	163	
161	168	186	
146	171	172	
169	184	190	
179	170	187	
149	190	194	
153	168	170	
151	199	163	
172	160	178	
164	205	153	
160	162	169	
173	183	192	
149	169	172	
164	175	182	
178	164	190	
160	176	197	
172	171	196	
132	199	158	
158	176	169	
162	200	162	
161	168	166	
137	184	183	
164	161	155	
157	162	196	
150	180	168	
179	203	169	
163	179	172	
163	209	193	
170	184	199	
178	170	152	
159	175	177	
161	171	182	
153	149	149	
175	176	179	
162	180	170	
152	173	134	
157	170	199	
166	186	184	
157	188	157	
120	176	158	
147	163	176	
165	168	154	
169	171	155	
155	211	183	
150	193	171	
150	161	176	
176	175	160	
169	176	168	
144	176	195	
162	168	166	
176	183	178	
164	188	164	
179	154	162	
149	163	179	
160	176	163	
162	135	161	
139	179	167	
148	176	169	
139	161	189	
155	153	162	
156	155	156	
142	160	172	
161	171	166	
147	158	174	
142	189	163	
162	152	177	
148	180	182	
177	169	166	
156	162	171	
161	183	170	
161	169	165	
156	180	148	
155	184	166	
146	152	167	
171	139	178	
152	161	163	
130	185	168	
156	202	177	
159	175	187	
146	168	164	
150	181	161	
150	144	152	
140	165	169	
151	161	169	
129	173	170	
177	161	167	
152	167	161	
164	159	154	
176	183	157	
139	144	159	
152	167	153	
143	181	155	
150	159	151	
149	157	150	
160	182	162	
166	150	149	
162	167	162	
167	208	166	
140	162	165	
139	195	165	
151	152	159	
130	157	159	
172	156	179	
165	159	173	
144	160	146	
154	152	126	
149	157	155	
134	149	176	
142	145	137	
157	162	144	
149	163	163	
148	148	170	
117	168	156	
130	165	153	
145	169	149	
157	136	166	
139	138	174	
151	158	181	
166	146	139	
152	167	165	
145	162	165	
159	163	155	
154	170	157	
162	165	152	
174	180	165	
151	153	165	
140	147	139	
158	169	154	
149	153	159	
128	156	167	
145	166	171	
175	164	159	
142	175	169	
170	174	146	
152	184	143	
116	149	155	
165	162	161	
173	162	167	
125	136	147	
176	174	152	
152	183	168	
121	148	173	
144	156	164	
154	164	153	
132	145	149	
139	165	143	
143	145	149	
161	180	156	
129	153	176	
155	170	154	
146	172	174	
133	163	165	
137	175	177	
143	184	175	
157	167	160	
152	161	165	
168	145	154	
158	179	153	
146	139	168	
159	166	161	
160	193	165	
129	146	133	
157	147	179	
139	172	135	
133	166	168	
142	182	151	
147	166	145	
118	148	129	
140	167	158	
140	175	159	
156	146	149	
135	154	148	
136	158	145	
150	177	140	
173	160	155	
147	151	147	
130	156	137	
160	148	156	
122	157	164	
152	148	178	
124	169	154	
139	141	136	
140	180	154	
147	133	144	
145	180	140	
152	172	176	
135	151	149	
137	152	130	
155	151	150	
140	153	143	
139	152	162	
149	158	156	
124	176	130	
149	131	144	
156	167	130	
145	149	141	
145	161	168	
119	153	144	
127	155	151	
135	150	145	
145	148	161	
152	153	150	
132	147	146	
135	163	154	
152	156	158	
156	161	161	
158	150	145	
151	165	142	
131	155	156	
139	135	159	
107	145	163	
155	151	139	
124	148	157	
127	143	161	
128	141	130	
139	154	146	
149	167	166	
151	158	144	
128	149	141	
138	145	132	
130	155	166	
140	158	154	
142	161	136	
136	160	166	
135	141	156	
152	142	154	
144	159	157	
137	148	153	
133	135	145	
125	137	143	
121	149	141	
125	152	149	
158	151	155	
117	154	140	
126	150	155	
133	148	140	
138	139	150	
151	141	162	
148	131	134	
129	143	139	
146	158	152	
157	130	149	
143	125	146	
153	148	124	
133	153	154	
121	175	160	
141	146	156	
141	161	150	
137	118	142	
148	140	137	
136	138	143	
133	156	181	
142	142	157	
115	154	143	
139	156	142	
138	139	174	
135	161	147	
135	137	144	
147	164	130	
145	145	138	
117	151	144	
138	133	132	
125	140	144	
132	164	133	
125	154	147	
124	145	141	
134	117	132	
136	132	138	
134	149	142	
120	158	157	
122	152	150	
139	148	159	
151	167	137	
106	154	132	
127	143	127	
141	172	133	
157	141	138	
117	159	138	
121	149	146	
123	155	150	
126	147	154	
126	138	114	
141	142	134	
120	126	129	
131	151	156	
123	146	131	
135	142	116	
103	135	138	
129	136	133	
141	144	139	
142	145	147	
125	163	143	
132	142	140	
117	150	154	
117	147	151	
134	125	132	
138	133	138	
116	149	115	
146	149	170	
133	138	131	
132	140	131	
107	138	139	
129	146	144	
124	121	125	
113	137	148	
124	158	134	
135	143	143	
119	123	122	
142	149	145	
155	132	134	
139	130	127	
114	168	127	
127	154	151	
124	149	117	
121	144	130	
125	144	161	
157	137	133	
117	151	122	
138	146	127	
139	130	135	
119	124	130	
142	155	145	
121	154	126	
107	144	148	
133	127	117	
124	141	135	
145	161	140	
131	159	168	
120	146	143	
124	135	153	
124	148	146	
121	124	140	
123	136	133	
115	149	134	
132	154	146	
121	122	124	
126	153	116	
135	148	137	
135	147	135	
141	142	143	
104	161	126	
117	147	127	
114	135	139	
135	136	129	
132	151	143	
127	123	145	
111	122	118	
114	134	170	
155	125	124	
143	128	124	
119	139	121	
113	136	144	
121	119	126	
117	135	128	
115	129	141	
126	131	123	
141	137	128	
129	136	130	
115	135	160	
133	139	126	
146	134	145	
124	155	131	
99	137	136	
121	143	122	
121	145	128	
118	120	145	
99	133	146	
124	161	143	
133	136	122	
110	147	120	
122	129	134	
131	128	119	
110	123	125	
118	137	122	
126	153	119	
127	117	122	
115	153	133	
132	155	133	
124	130	162	
100	136	137	
124	144	122	
131	136	135	
115	140	90	
134	119	137	
123	141	128	
110	134	127	
118	115	137	
119	138	127	
127	118	132	
118	120	145	
112	124	142	
104	129	124	
103	131	117	
121	130	124	
100	119	153	
141	120	120	
115	139	141	
116	122	139	
112	115	131	
109	124	121	
122	153	136	
116	134	126	
106	118	136	
131	97	126	
103	151	148	
109	136	128	
107	155	136	
106	148	145	
105	134	148	
131	126	130	
107	125	141	
119	137	128	
135	140	123	
114	141	123	
118	145	127	
140	122	135	
103	136	124	
97	121	109	
119	132	103	
113	129	116	
112	127	113	
119	117	154	
121	118	147	
108	125	130	
116	122	120	
124	144	118	
120	137	111	
118	145	132	
130	120	118	
108	142	114	
121	125	117	
121	131	100	
94	119	110	
138	119	117	
109	130	132	
103	142	140	
108	121	136	
127	121	111	
144	118	122	
123	141	126	
105	128	136	
114	125	140	
117	128	127	
112	125	140	
120	131	108	
114	127	105	
105	143	132	
106	127	127	
97	121	132	
109	124	124	
126	104	132	
105	131	125	
107	135	116	
111	133	123	
103	112	123	
116	123	131	
118	119	129	
109	109	127	
105	126	131	
116	131	104	
101	124	118	
108	120	115	
105	119	128	
128	139	114	
118	127	138	
131	120	118	
111	129	125	
104	134	101	
102	137	104	
117	135	112	
141	141	117	
127	130	103	
99	106	128	
126	123	135	
117	121	131	
111	126	124	
105	122	128	
108	161	126	
85	116	115	
116	139	120	
105	122	104	
103	131	144	
87	138	134	
120	106	124	
118	117	129	
119	111	125	
115	111	132	
96	118	109	
128	138	124	
112	109	131	
119	139	121	
117	113	127	
127	123	114	
121	123	106	
106	128	118	
98	127	101	
100	108	103	
102	136	124	
105	112	118	
120	124	123	
116	115	126	
98	132	116	
114	109	134	
105	129	113	
96	123	100	
108	120	126	
111	136	138	
110	136	129	
115	118	103	
102	141	136	
111	122	127	
104	103	102	
91	128	115	
113	107	129	
113	114	122	
100	124	123	
113	132	114	
105	124	143	
106	109	118	
114	118	126	
95	121	143	
116	135	116	
116	129	117	
126	89	100	
104	121	101	
112	102	145	
136	123	97	
118	127	121	
119	107	119	
102	100	124	
90	126	113	
105	117	99	
109	118	108	
111	117	116	
109	111	117	
126	122	116	
105	128	110	
108	112	116	
110	87	132	
110	109	101	
99	120	120	
105	109	118	
95	137	131	
98	114	108	
104	99	114	
127	111	105	
105	123	125	
113	116	105	
97	123	100	
104	109	92	
87	127	115	
112	129	103	
108	121	111	
91	99	117	
108	115	126	
106	108	103	
103	103	120	
103	124	103	
99	121	118	
102	109	113	
102	104	96	
106	88	108	
110	112	106	
91	122	121	
89	97	117	
119	107	98	
103	117	118	
112	120	118	
93	123	111	
93	116	81	
118	106	110	
109	114	85	
113	111	115	
101	149	103	
116	115	121	
102	124	120	
114	121	121	
96	113	111	
106	126	112	
109	111	119	
105	96	103	
97	121	109	
106	117	92	
126	107	92	
102	112	109	
103	91	108	
91	114	107	
106	123	113	
112	126	113	
107	103	126	
99	123	101	
102	114	114	
91	116	118	
92	99	113	
102	131	120	
100	114	112	
104	121	105	
84	93	108	
111	115	108	
101	93	110	
98	106	120	
87	104	105	
101	109	111	
111	92	118	
97	101	111	
103	114	102	
89	105	112	
106	135	105	
111	108	115	
101	123	120	
97	118	113	
89	92	126	
110	99	118	
105	111	104	
109	119	97	
102	115	111	
93	114	111	
79	111	119	
106	99	106	
106	116	127	
118	96	105	
112	118	97	
99	90	113	
98	100	92	
99	103	92	
105	103	76	
99	103	101	
107	105	100	
89	110	110	
76	97	121	
101	117	112	
106	110	97	
121	121	112	
94	114	121	
82	113	109	
99	113	101	
97	126	126	
87	115	110	
94	113	113	
103	108	113	
92	110	109	
86	121	123	
104	98	92	
98	116	91	
89	105	101	
108	135	113	
95	110	103	
97	97	130	
90	109	93	
106	101	99	
94	100	99	
107	93	116	
86	106	95	
91	107	106	
86	108	78	
101	104	125	
79	112	106	
79	111	112	
107	122	110	
92	105	107	
102	95	104	
89	104	119	
85	99	111	
111	94	111	
90	115	119	
114	96	96	
104	94	109	
99	117	97	
86	107	110	
109	105	105	
89	91	77	
90	110	123	
95	101	116	
104	108	108	
74	99	114	
102	92	95	
92	125	109	
101	84	112	
92	97	135	
97	106	116	
96	121	85	
92	109	99	
82	108	103	
91	112	95	
